#Acq. time (s)=	30
#Accumulations=	2
#Range (cm-¹)=	100...4000
#Windows=	1
#Auto scanning=	Off
#Autofocus=	Off
#Macrospot=	Off
#AutoExposure=	Off
#Spike filter=	Multiple accum.
#Delay time (s)=	2
#Binning=	1
#Readout mode=	Signal
#DeNoise=	Standard
#ICS correction=	On
#Dark correction=	Off
#Inst. Process=	Off
#Detector Gain=	Best Dynamic
#Detector ADC=	50 kHz HS
#Detector temperature (°C)=	-60.09
#Instrument=	LabRAM HR Evol
#Detector=	SIN-EM FIVIS
#Objective=	x50_VIS_LWD
#Grating=	150 (500nm)
#ND Filter=	100%
#Laser=	633nm_Edge
#Hole=	30.0125
#Temperature=	0
#Range=	Visible
#StageXY=	75x50mm Scan+
#StageZ=	Z motor
#X (µm)=	0
#Y (µm)=	0
#Z (µm)=	59.3
#Full time(mm:ss)=	1:04
#Project=	20_10_27
#Sample=	BU24
#Site=	
#Title=	BU24-Turm1-host_150 (500nm)_633nm_Edge_100%_x50_VIS_LWD_H30um_30sX2
#Remark=	
#Date=	27.10.2020 18:26
#Acquired=	27.10.2020 18:26:54
#Data Range:Extract=	01.07.2021 19:23:37
#Base:Fit=	01.07.2021 19:24:15
#Base:Fit=	01.07.2021 19:24:39
#Base:Fit=	01.07.2021 19:24:47
#Base:Sub=	01.07.2021 19:24:50
100.764	9.63501
104.022	-0.269348
107.281	52.0633
110.536	218.144
113.791	449.659
117.044	375.362
120.297	149.834
123.546	80.2587
126.797	50.998
130.044	31.8605
133.291	23.408
136.536	20.7476
139.78	43.0416
143.022	84.6512
146.264	154.58
149.503	285.113
152.741	458.271
155.979	356.155
159.214	297.151
162.449	366.717
165.682	408.379
168.914	344.132
172.144	258.763
175.374	176.426
178.601	110.203
181.827	148.739
185.053	178.624
188.276	197.168
191.499	178.048
194.719	157.008
197.939	136.18
201.158	118.645
204.374	133.538
207.591	187.481
210.805	188.082
214.017	138.917
217.23	97.8754
220.44	61.5209
223.648	46.4702
226.857	34.4332
230.063	31.1688
233.267	33.4473
236.472	40.3917
239.674	54.3497
242.874	69.9393
246.075	99.3472
249.273	183.191
252.47	322.18
255.667	255.66
258.861	156.988
262.053	125.787
265.246	150.034
268.436	309.961
271.625	349.674
274.813	270.236
278	199.533
281.185	194.473
284.369	282.441
287.552	464.023
290.733	739.152
293.913	711.463
297.091	417.663
300.27	209.338
303.445	154.544
306.62	122.239
309.793	103.994
312.965	91.1527
316.137	79.2197
319.306	69.1922
322.474	63.9956
325.64	60.6061
328.806	58.5133
331.971	53.4592
335.134	47.4941
338.295	41.6832
341.456	35.8954
344.614	30.6719
347.773	25.971
350.93	21.4114
354.085	17.0761
357.238	13.1744
360.391	9.22363
363.542	6.03979
366.692	2.99963
369.842	0.569092
372.989	-1.25208
376.135	-1.77893
379.28	-0.561035
382.423	2.48724
385.565	7.60333
388.706	15.1197
391.846	26.1631
394.984	39.1647
398.123	55.318
401.258	75.9227
404.393	103.773
407.526	142.888
410.658	177.553
413.789	211.439
416.918	239.246
420.046	173.532
423.173	82.3922
426.299	44.9072
429.423	29.7649
432.546	19.6658
435.668	16.4025
438.788	15.9787
441.907	17.5509
445.025	19.6591
448.142	23.8296
451.257	29.8141
454.372	37.348
457.484	46.574
460.596	58.7554
463.706	76.3401
466.816	99.2257
469.923	147.727
473.03	319.221
476.135	640.743
479.239	1178.83
482.342	1117.59
485.444	604.573
488.544	330.005
491.643	207.455
494.741	204.282
497.837	286.638
500.933	397.149
504.027	847.143
507.12	1719.89
510.21	1805.75
513.3	998.171
516.389	469.803
519.477	253.65
522.563	179.074
525.649	133.104
528.733	100.87
531.815	75.765
534.897	57.6842
537.976	43.7625
541.055	32.8236
544.133	25.7975
547.209	20.1257
550.285	17.1205
553.359	14.8925
556.43	13.3989
559.502	11.9865
562.572	10.6501
565.641	9.28589
568.709	8.00635
571.776	6.81738
574.84	5.3114
577.904	3.66028
580.967	1.89026
584.029	0.239746
587.09	-1.41614
590.147	-2.67163
593.205	-3.40283
596.262	-3.50598
599.318	-1.79626
602.371	0.542725
605.424	3.65845
608.476	7.3927
611.527	11.5194
614.575	15.7493
617.623	19.5961
620.67	22.7386
623.716	25.1462
626.759	26.5516
629.802	27.0063
632.844	25.5009
635.884	22.7039
638.924	19.0437
641.962	14.9215
644.998	10.9568
648.034	7.43994
651.069	5.09778
654.101	3.41956
657.133	2.88477
660.165	2.58875
663.193	3.86523
666.222	6.03748
669.25	9.01782
672.274	12.4803
675.3	16.1311
678.324	19.3638
681.345	21.9454
684.366	23.5619
687.385	23.6444
690.404	23.4159
693.422	22.0873
696.438	20.1294
699.453	17.8187
702.466	15.3895
705.479	12.8756
708.491	10.1715
711.5	7.50122
714.51	4.93872
717.516	2.79211
720.523	0.973999
723.528	-0.808716
726.533	-2.06091
729.536	-2.81482
732.537	-2.54395
735.538	-1.66809
738.537	0.150635
741.535	4.66956
744.531	11.6635
747.528	12.2253
750.521	12.9296
753.515	18.5734
756.507	59.4841
759.498	113.322
762.487	197.126
765.476	192.331
768.463	159.747
771.45	121.104
774.434	87.1113
777.417	57.4027
780.4	44.8153
783.381	36.3184
786.362	28.6594
789.34	23.2336
792.319	18.9624
795.294	16.3286
798.269	16.7224
801.244	17.8589
804.217	19.7522
807.189	21.979
810.159	23.8342
813.128	23.7261
816.097	23.8982
819.064	22.822
822.03	21.5515
824.995	20.2158
827.958	18.7517
830.921	17.4756
833.881	16.8914
836.841	16.6624
839.801	16.7117
842.758	17.1077
845.714	17.8176
848.67	18.6404
851.624	19.5564
854.576	20.4285
857.529	21.0879
860.479	21.3813
863.428	21.0347
866.377	19.9607
869.324	18.0918
872.269	15.6965
875.215	12.8699
878.158	9.93262
881.1	7.14722
884.041	4.65332
886.982	2.82056
889.92	1.38306
892.858	0.334717
895.794	-0.297607
898.73	-0.624512
901.664	-0.787109
904.597	-0.727051
907.529	-0.664551
910.459	-0.65918
913.39	-0.63501
916.318	-0.501465
919.245	-0.107422
922.171	1.42725
925.095	4.51343
928.02	5.83594
930.943	5.07959
933.864	4.37744
936.784	3.802
939.703	3.76025
942.62	5.57178
945.539	8.98877
948.454	14.3767
951.368	23.0278
954.282	37.0144
957.194	45.1797
960.105	52.7844
963.014	59.3086
965.924	64.793
968.832	68.3606
971.738	70.4128
974.643	70.905
977.547	69.8013
980.45	65.25
983.352	58.8909
986.253	50.6658
989.152	41.7429
992.051	32.47
994.948	25.344
997.844	18.7368
1000.74	13.1328
1003.63	8.66699
1006.53	7.77637
1009.42	9.03101
1012.31	11.9019
1015.2	15.7847
1018.09	20.28
1020.97	24.1145
1023.86	28.5483
1026.74	33.3125
1029.63	38.1404
1032.51	42.8018
1035.39	46.7625
1038.27	49.7632
1041.15	51.4512
1044.03	51.7134
1046.91	50.4067
1049.78	47.1306
1052.66	41.6296
1055.53	34.4502
1058.4	26.6069
1061.27	18.5901
1064.14	14.5369
1067.01	11.3726
1069.88	8.84106
1072.75	-0.800049
1075.61	2.99976
1078.48	9.51147
1081.34	20.0105
1084.2	34.2197
1087.06	50.783
1089.92	68.7107
1092.78	85.9861
1095.64	101.995
1098.5	115.316
1101.35	124.84
1104.21	129.792
1107.06	130.565
1109.91	126.526
1112.77	118.625
1115.62	103.55
1118.46	93.2427
1121.31	81.5239
1124.16	70.3218
1127	59.3901
1129.85	49.332
1132.69	40.625
1135.53	33.7554
1138.37	28.4097
1141.22	25.4727
1144.05	23.7598
1146.89	22.5015
1149.73	21.3833
1152.56	20.3848
1155.4	17.9077
1158.23	15.2241
1161.06	12.4644
1163.9	9.64746
1166.73	7.65186
1169.56	5.89551
1172.38	4.43896
1175.21	2.97852
1178.04	-3.43604
1180.86	-7.12354
1183.68	-7.78516
1186.51	-5.68652
1189.33	-1.14404
1192.15	6.38428
1194.97	15.9761
1197.78	26.8506
1200.6	38.1797
1203.42	47.709
1206.23	56.9263
1209.04	65.9766
1211.86	79.5649
1214.67	88.0859
1217.48	94.2271
1220.29	97.3521
1223.1	96.3184
1225.9	93.3125
1228.71	87.876
1231.51	80.6436
1234.32	74.0039
1237.12	67.8364
1239.92	62.1304
1242.72	56.0684
1245.52	50.6006
1248.32	44.166
1251.12	36.3491
1253.92	26.5703
1256.71	17.0176
1259.5	8.38965
1262.3	3.24512
1265.09	0.849121
1267.88	1.47607
1270.67	3.89355
1273.46	7.26807
1276.25	10.6553
1279.03	14.1514
1281.82	19.4429
1284.6	26.5957
1287.39	33.5757
1290.17	40.4512
1292.95	46.46
1295.73	49.7568
1298.51	51.647
1301.29	52.7603
1304.06	52.2046
1306.84	51.1934
1309.61	48.3511
1312.39	44.8867
1315.16	41.061
1317.93	37.7925
1320.7	34.4111
1323.47	32.0273
1326.24	31.3472
1329.01	30.5757
1331.77	29.3765
1334.54	28.918
1337.3	29.0898
1340.06	37.9805
1342.83	35.5728
1345.59	33.0894
1348.35	29.6099
1351.1	26.4258
1353.86	23.4595
1356.62	20.5273
1359.37	20.479
1362.13	21.9907
1364.88	23.0571
1367.63	23.6494
1370.39	21.5391
1373.14	21.8174
1375.89	23.646
1378.63	25.9751
1381.38	27.9033
1384.13	26.0454
1386.87	24.3784
1389.62	23.019
1392.36	23.9907
1395.1	25.5029
1397.84	27.5562
1400.58	31.6055
1403.32	38.4077
1406.06	55.0068
1408.79	67.7964
1411.53	79.0654
1414.26	87.8037
1417	94.3403
1419.73	98.5737
1422.46	100.52
1425.19	98.7793
1427.92	94.5024
1430.65	88.4946
1433.38	81.1035
1436.1	73.3633
1438.83	64.8169
1441.55	55.4189
1444.27	45.0786
1447	32.853
1449.72	21.0151
1452.44	10.1587
1455.16	2.24316
1457.87	-1.19922
1460.59	-0.435547
1463.31	2.3418
1466.02	6.50488
1468.73	11.6953
1471.45	15.9712
1474.16	20.4229
1476.87	25.0273
1479.58	29.9282
1482.29	34.9829
1484.99	40.0547
1487.7	45.0776
1490.41	49.8403
1493.11	55.0601
1495.81	60.688
1498.52	66.8306
1501.22	73.2427
1503.92	79.6226
1506.62	85.7739
1509.32	91.499
1512.01	96.627
1514.71	100.034
1517.4	103.533
1520.1	104.898
1522.79	105.546
1525.48	106.74
1528.17	110.25
1530.86	115.908
1533.55	120.835
1536.24	124.832
1538.93	126.877
1541.61	123.695
1544.3	118.847
1546.98	112.625
1549.67	105.835
1552.35	101.051
1555.03	94.646
1557.71	88.731
1560.39	83.8657
1563.07	80.9741
1565.74	79.916
1568.42	81.6577
1571.09	84.6865
1573.77	88.9204
1576.44	94.1157
1579.11	101.974
1581.78	110.401
1584.45	119.1
1587.12	126.843
1589.79	132.173
1592.45	136.856
1595.12	141.197
1597.78	144.17
1600.45	144.676
1603.11	148.297
1605.77	155.005
1608.43	162.056
1611.09	168.657
1613.75	174.649
1616.41	180.978
1619.07	187.413
1621.72	193.733
1624.38	199.759
1627.03	205.266
1629.68	210.156
1632.33	214.363
1634.98	217.073
1637.63	218.889
1640.28	219.766
1642.93	220.288
1645.58	219.868
1648.22	218.676
1650.87	216.992
1653.51	214.911
1656.15	212.666
1658.8	210.235
1661.44	207.643
1664.08	204.629
1666.71	201.533
1669.35	198.307
1671.99	194.925
1674.62	191.479
1677.26	188.153
1679.89	184.014
1682.53	180.289
1685.16	177.138
1687.79	175.551
1690.42	179.901
1693.05	185.23
1695.67	191.216
1698.3	197.707
1700.93	202.696
1703.55	207.568
1706.18	211.849
1708.8	215.79
1711.42	216.963
1714.04	217.558
1716.66	218.237
1719.28	223.876
1721.9	229.943
1724.51	236.039
1727.13	241.383
1729.75	246.216
1732.36	249.42
1734.97	252.077
1737.58	254.126
1740.2	255.098
1742.81	254.738
1745.42	252.817
1748.02	249.613
1750.63	245.005
1753.24	236.896
1755.84	226.365
1758.45	215.086
1761.05	203.516
1763.65	193.818
1766.25	185.244
1768.85	178.393
1771.45	170.286
1774.05	163.565
1776.65	157.831
1779.24	154.195
1781.84	153.302
1784.44	157.984
1787.03	164.637
1789.62	176.415
1792.21	192.341
1794.8	208.927
1797.39	223.417
1799.98	236.748
1802.57	248.295
1805.16	257.372
1807.74	264.045
1810.33	269.106
1812.91	271.531
1815.49	271.199
1818.08	268.414
1820.66	263.627
1823.24	257.054
1825.82	250.902
1828.39	244.647
1830.97	236.239
1833.55	227.643
1836.12	218.959
1838.7	212.483
1841.27	209.526
1843.84	206.68
1846.42	205.234
1848.99	204.301
1851.56	203.545
1854.12	203.39
1856.69	204.723
1859.26	208.288
1861.82	212.692
1864.39	218.584
1866.95	224.831
1869.52	229.197
1872.08	233.843
1874.64	238.586
1877.2	243.6
1879.76	244.604
1882.32	247.935
1884.87	251.971
1887.43	255.528
1889.98	258.523
1892.54	260.944
1895.09	261.075
1897.64	260.396
1900.2	256.978
1902.75	251.009
1905.3	248.084
1907.85	245.478
1910.39	246.347
1912.94	246.82
1915.49	248.158
1918.03	249.885
1920.57	250.727
1923.12	252.255
1925.66	253.78
1928.2	255.676
1930.74	257.541
1933.28	259.756
1935.82	261.654
1938.36	263.965
1940.89	265.815
1943.43	267.145
1945.96	264.116
1948.5	262.485
1951.03	259.247
1953.56	254.935
1956.09	248.886
1958.62	240.854
1961.15	227.349
1963.68	213.27
1966.21	200.039
1968.73	190.142
1971.26	182.737
1973.78	177.238
1976.31	174.236
1978.83	173.444
1981.35	175.442
1983.87	180.115
1986.39	187.681
1988.91	196.811
1991.43	207.575
1993.94	217.635
1996.46	226.785
1998.98	234.354
2001.49	225.45
2004	232.044
2006.52	237.437
2009.03	244.055
2011.54	252.603
2014.05	261.122
2016.56	268.312
2019.06	272.931
2021.57	275.808
2024.08	276.728
2026.58	277.166
2029.08	274.408
2031.59	271.181
2034.09	267.793
2036.59	265.216
2039.09	263.013
2041.59	262.249
2044.09	261.545
2046.59	261.511
2049.08	262.227
2051.58	263.642
2054.07	265.728
2056.57	268.486
2059.06	271.883
2061.55	277.058
2064.05	276.389
2066.54	273.295
2069.02	269.996
2071.51	267.448
2074	263.916
2076.49	260.058
2078.97	252.529
2081.46	241.969
2083.94	231.006
2086.43	222.421
2088.91	215.446
2091.39	211.279
2093.87	209.761
2096.35	210.229
2098.83	212.055
2101.3	214.292
2103.78	216.466
2106.26	217.646
2108.73	218.594
2111.21	218
2113.68	216.211
2116.15	215.308
2118.62	214.941
2121.09	213.985
2123.56	212.537
2126.03	210.709
2128.5	208.263
2130.97	203.334
2133.43	195.956
2135.9	187.725
2138.36	179.8
2140.83	172.349
2143.29	166.58
2145.75	161.573
2148.21	157.063
2150.67	153.854
2153.13	151.349
2155.59	149.295
2158.04	147.443
2160.5	146.712
2162.95	146.158
2165.41	146.636
2167.86	146.217
2170.31	146.165
2172.77	145.538
2175.22	143.464
2177.67	142.574
2180.12	142.242
2182.56	142.977
2185.01	144.318
2187.46	146.826
2189.9	150.271
2192.35	155.027
2194.79	160.051
2197.23	163.64
2199.68	170.146
2202.12	176.633
2204.56	183.065
2207	188.963
2209.43	194.347
2211.87	198.244
2214.31	198.969
2216.74	199.541
2219.18	198.01
2221.61	195.564
2224.05	192.347
2226.48	188.619
2228.91	184.822
2231.34	180.565
2233.77	178.247
2236.2	175.962
2238.63	173.702
2241.05	171.156
2243.48	168.675
2245.9	165.957
2248.33	162.874
2250.75	159.187
2253.17	153.39
2255.6	148.615
2258.02	141.568
2260.44	133.756
2262.86	125.756
2265.27	118.02
2267.69	110.155
2270.11	103.043
2272.52	100.301
2274.94	96.7646
2277.35	94.6914
2279.76	93.1641
2282.18	93.0566
2284.59	93.5879
2287	95.6016
2289.41	98.5957
2291.82	102.441
2294.23	106.521
2296.63	110.526
2299.04	111.285
2301.44	112.688
2303.85	118.882
2306.25	125.69
2308.65	131.116
2311.05	135.418
2313.46	140.712
2315.86	145.236
2318.25	150.784
2320.65	153.791
2323.05	147.132
2325.45	148.563
2327.84	151.233
2330.24	154.85
2332.63	158.572
2335.03	161.778
2337.42	165.459
2339.81	168.7
2342.2	173.318
2344.59	178.679
2346.98	183.416
2349.37	185.185
2351.75	183.979
2354.14	178.201
2356.52	171.467
2358.91	164.857
2361.29	159.852
2363.67	154.435
2366.06	148.3
2368.44	141.589
2370.82	134.696
2373.2	127.494
2375.58	120.092
2377.95	112.258
2380.33	104.491
2382.71	96.1738
2385.08	87.8711
2387.46	80.1709
2389.83	73.1094
2392.2	66.7197
2394.57	62.3164
2396.95	34.9395
2399.32	36.0625
2401.68	39.5635
2404.05	45.6963
2406.42	52.9131
2408.79	58.4629
2411.15	62.9443
2413.52	68.71
2415.88	75.1543
2418.25	83.042
2420.61	90.7061
2422.97	98.8467
2425.33	106.915
2427.69	115.209
2430.05	123.336
2432.41	132.038
2434.77	141.742
2437.12	152.729
2439.48	161.464
2441.83	167.005
2444.19	168.355
2446.54	164.215
2448.89	159.352
2451.24	155.334
2453.6	151.755
2455.95	146.476
2458.29	140.272
2460.64	132.397
2462.99	124.264
2465.34	116.752
2467.68	110.052
2470.03	106.528
2472.37	104.97
2474.72	105.459
2477.06	108.748
2479.4	113.487
2481.74	118.664
2484.08	124.303
2486.42	128.557
2488.76	131.272
2491.1	133.634
2493.43	136.983
2495.77	139.823
2498.1	141.655
2500.44	142.422
2502.77	141.421
2505.1	135.508
2507.43	128.804
2509.76	121.702
2512.1	119.818
2514.42	117.862
2516.75	116.469
2519.08	111.881
2521.41	107.054
2523.73	101.593
2526.06	95.9883
2528.38	90.3828
2530.71	85.2568
2533.03	81.0703
2535.35	76.5811
2537.67	72.457
2539.99	69.2178
2542.31	66.7158
2544.63	64.9619
2546.95	64.3203
2549.26	64.7822
2551.58	68.874
2553.89	74.7744
2556.21	82.9463
2558.52	91.9512
2560.84	100.612
2563.15	107.702
2565.46	112.552
2567.77	113.955
2570.08	111.248
2572.39	106.163
2574.7	98.2402
2577	87.4512
2579.31	73.4629
2581.61	58.2803
2583.92	43.4492
2586.22	33.2891
2588.53	22.585
2590.83	12.4648
2593.13	5.73828
2595.43	2.02832
2597.73	-0.588867
2600.03	-1.97461
2602.33	-2.68164
2604.62	-2.20215
2606.92	-1.15039
2609.22	1.08594
2611.51	3.77539
2613.81	7.83887
2616.1	12.3252
2618.39	17.9561
2620.68	22.2158
2622.97	1.10449
2625.26	19.8066
2627.55	41.3027
2629.84	66.2939
2632.13	96.4258
2634.42	114.616
2636.7	123.01
2638.99	100.757
2641.27	81.8379
2643.56	61.3291
2645.84	42.4404
2648.12	27.4385
2650.4	19.2451
2652.68	40.8569
2654.96	47.5098
2657.24	43.8672
2659.52	39.0518
2661.8	39.332
2664.07	41.1367
2666.35	43.5815
2668.63	46.2251
2670.9	49.5781
2673.17	52.0264
2675.45	54.4844
2677.72	56.2681
2679.99	57.3931
2682.26	57.4033
2684.53	55.3564
2686.8	51.2568
2689.06	45.6938
2691.33	39.3398
2693.6	31.2324
2695.86	23.1919
2698.13	16.064
2700.39	10.248
2702.66	7.92285
2704.92	6.74658
2707.18	7.94727
2709.44	10.9624
2711.7	15.2881
2713.96	20.8892
2716.22	25.5547
2718.47	30.4199
2720.73	39.4077
2722.99	48.1987
2725.24	53.334
2727.5	55.2944
2729.75	54.6455
2732	51.8247
2734.26	47.5381
2736.51	41.9189
2738.76	33.4902
2741.01	25.873
2743.25	20.6255
2745.5	16.6885
2747.75	14.2456
2750	13.9048
2752.24	15.0532
2754.49	18.5483
2756.73	23.8804
2758.98	30.0039
2761.22	36.521
2763.46	42.2046
2765.7	48.3047
2767.94	54.1714
2770.18	59.6167
2772.42	64.4575
2774.66	68.9341
2776.9	72.8906
2779.13	76.3315
2781.37	78.9497
2783.6	80.8369
2785.84	81.687
2788.07	81.6484
2790.3	81.1938
2792.53	79.9746
2794.77	78.1035
2797	75.8081
2799.23	72.4087
2801.45	68.3613
2803.68	63.562
2805.91	57.8887
2808.14	51.2817
2810.36	44.4341
2812.59	37.5898
2814.81	32.8901
2817.03	33.1968
2819.26	33.3164
2821.48	34.2568
2823.7	35.6895
2825.92	36.8667
2828.14	38.771
2830.36	41.4849
2832.57	45.9019
2834.79	50.6816
2837.01	55.5581
2839.22	59.772
2841.44	61.3101
2843.65	61.5737
2845.87	60.9458
2848.08	59.0942
2850.29	56.8203
2852.5	52.6826
2854.71	46.2856
2856.92	40.9966
2859.13	39.6841
2861.34	40.7505
2863.55	42.6221
2865.75	46.0898
2867.96	51.269
2870.16	58.3662
2872.37	66.4556
2874.57	74.9961
2876.77	84.9487
2878.98	95.2197
2881.18	102.272
2883.38	103.752
2885.58	98.98
2887.78	92.3804
2889.97	83.6572
2892.17	74.5483
2894.37	61.3179
2896.56	47.6079
2898.76	36.4995
2900.95	30.3237
2903.15	27.1733
2905.34	26.042
2907.53	26.4238
2909.72	27.4897
2911.91	29.8169
2914.1	32.2866
2916.29	34.6553
2918.48	37.5244
2920.67	40.832
2922.86	45.2515
2925.04	50.7656
2927.23	57.7231
2929.41	66.3848
2931.6	75.3457
2933.78	84.5488
2935.96	93.5991
2938.14	100.787
2940.32	108.342
2942.5	114.971
2944.68	120.05
2946.86	121.554
2949.04	119.326
2951.22	116.74
2953.39	114.205
2955.57	110.294
2957.74	106.146
2959.92	101.759
2962.09	98.1519
2964.26	96.3042
2966.44	95.9424
2968.61	96.7793
2970.78	97.9395
2972.95	99.5762
2975.12	101.177
2977.28	102.635
2979.45	102.951
2981.62	103.19
2983.79	103.751
2985.95	104.637
2988.11	104.258
2990.28	103.134
2992.44	103.736
2994.6	106.873
2996.77	111.942
2998.93	115.845
3001.09	118.634
3003.25	120.866
3005.4	121.264
3007.56	120.48
3009.72	118.002
3011.88	114.51
3014.03	110.544
3016.19	106.365
3018.34	101.114
3020.49	95.8267
3022.65	90.3862
3024.8	85.2271
3026.95	80.7944
3029.1	77.1079
3031.25	74.6523
3033.4	73.1313
3035.55	73.7383
3037.7	74.9336
3039.84	77.2959
3041.99	80.1362
3044.13	82.6572
3046.28	83.7017
3048.42	83.0791
3050.57	84.4912
3052.71	78.4751
3054.85	93.5684
3056.99	138.126
3059.13	143.007
3061.27	137.431
3063.41	118.883
3065.55	104.746
3067.69	94.9189
3069.82	87.9951
3071.96	80.2896
3074.09	76.8594
3076.23	78.707
3078.36	83.3213
3080.5	89.9541
3082.63	98.6113
3084.76	108.456
3086.89	117.32
3089.02	119.118
3091.15	124.431
3093.28	130.402
3095.41	136.734
3097.53	142.684
3099.66	148.415
3101.79	154.581
3103.91	160.335
3106.04	163.556
3108.16	162.688
3110.28	158.486
3112.41	153.687
3114.53	148.179
3116.65	141.659
3118.77	135.431
3120.89	129.51
3123.01	124.885
3125.12	121.322
3127.24	118.782
3129.36	117.56
3131.47	117.198
3133.59	117.751
3135.7	119.001
3137.82	121.213
3139.93	123.942
3142.04	127.323
3144.15	130.842
3146.27	136.44
3148.38	141.412
3150.49	145.474
3152.59	146.655
3154.7	143.503
3156.81	140.172
3158.92	136.117
3161.02	130.944
3163.13	125.44
3165.23	119.925
3167.33	114.079
3169.44	108.422
3171.54	101.903
3173.64	95.48
3175.74	88.8721
3177.84	83.0166
3179.94	78.5786
3182.04	76.4565
3184.14	81.2583
3186.24	80.9175
3188.33	81.3174
3190.43	82.7593
3192.52	85.2529
3194.62	87.6099
3196.71	89.916
3198.81	90.7427
3200.9	90.1553
3202.99	88.3442
3205.08	86.083
3207.17	84.3208
3209.26	83.6162
3211.35	83.542
3213.44	83.8989
3215.53	84.8877
3217.61	86.9165
3219.7	89.2632
3221.79	92.1265
3223.87	95.4731
3225.95	98.4209
3228.04	101.116
3230.12	103.408
3232.2	105.251
3234.28	106.759
3236.36	108.627
3238.44	110.047
3240.52	112.016
3242.6	114.345
3244.68	115.995
3246.76	117.06
3248.83	117.471
3250.91	114.228
3252.98	108.957
3255.06	103.371
3257.13	97.084
3259.2	92.9067
3261.28	89.7231
3263.35	87.5869
3265.42	86.1489
3267.49	83.1997
3269.56	78.9453
3271.63	75.7822
3273.7	75.6736
3275.76	79.3777
3277.83	82.7251
3279.9	85.5212
3281.96	86.6006
3284.03	86.3337
3286.09	84.9338
3288.15	82.1992
3290.22	77.8047
3292.28	72.0227
3294.34	65.6851
3296.4	58.6719
3298.46	50.9954
3300.52	44.9004
3302.58	39.8955
3304.64	35.3733
3306.69	29.5146
3308.75	20.2009
3310.8	12.3801
3312.86	7.13721
3314.91	5.10889
3316.97	1.70361
3319.02	-0.0456543
3321.07	-1.09912
3323.12	0.72168
3325.18	5.27271
3327.23	12.9148
3329.28	23.2837
3331.32	33.2813
3333.37	39.9924
3335.42	41.7319
3337.47	40.6401
3339.51	37.7771
3341.56	33.7778
3343.6	29.8269
3345.65	26.8108
3347.69	24.5747
3349.73	23.3323
3351.78	22.907
3353.82	23.7148
3355.86	25.3948
3357.9	27.6216
3359.94	30.6626
3361.98	34.1328
3364.02	38.0303
3366.05	44.7659
3368.09	51.8982
3370.12	58.593
3372.16	64.7134
3374.19	67.9963
3376.23	69.3765
3378.26	69.3928
3380.29	67.7034
3382.33	64.5029
3384.36	60.749
3386.39	56.5896
3388.42	52.1086
3390.45	48.8914
3392.48	45.6113
3394.5	42.4985
3396.53	39.8621
3398.56	37.3899
3400.58	35.3772
3402.61	33.9998
3404.63	33.1912
3406.66	33.6074
3408.68	34.9961
3410.7	37.2869
3412.73	41.231
3414.75	48.9695
3416.77	55.9219
3418.79	62.3381
3420.81	66.5803
3422.83	70.575
3424.84	73.6404
3426.86	76.0889
3428.88	77.7397
3430.89	78.3306
3432.91	78.1787
3434.92	77.1606
3436.94	75.9231
3438.95	73.2036
3440.96	69.5935
3442.98	65.7771
3444.99	61.6169
3447	57.4209
3449.01	54.301
3451.02	51.8333
3453.03	49.7375
3455.03	48.3374
3457.04	47.6323
3459.05	48.0098
3461.05	48.9971
3463.06	50.8276
3465.06	52.9419
3467.07	55.7754
3469.07	59.2183
3471.07	63.5876
3473.08	69.0562
3475.08	76.655
3477.08	83.7793
3479.08	90.1462
3481.08	93.0237
3483.08	93.3101
3485.07	90.9878
3487.07	87.5425
3489.07	82.0823
3491.07	74.9236
3493.06	66.9421
3495.06	58.9441
3497.05	52.1125
3499.04	46.0674
3501.04	40.926
3503.03	37.3354
3505.02	35.2
3507.01	35.0256
3509	35.5261
3510.99	36.9778
3512.98	38.8977
3514.97	40.7388
3516.96	42.2903
3518.94	43.4626
3520.93	44.8994
3522.91	46.1423
3524.9	47.2063
3526.88	49.1956
3528.87	51.7256
3530.85	55.4578
3532.83	58.957
3534.82	62.8696
3536.8	66.5642
3538.78	70.2961
3540.76	73.6284
3542.74	75.448
3544.71	78.0295
3546.69	81.8496
3548.67	78.3
3550.65	71.2361
3552.62	59.3667
3554.6	46.8699
3556.57	36.2102
3558.55	30.3313
3560.52	25.2505
3562.49	19.7683
3564.47	12.5493
3566.44	6.44067
3568.41	1.32373
3570.38	-1.47339
3572.35	-2.46533
3574.32	-1.15649
3576.29	2.33325
3578.25	8.33838
3580.22	15.365
3582.19	23.1033
3584.15	30.3804
3586.12	35.324
3588.08	38.1367
3590.05	33.3677
3592.01	33.6394
3593.97	34.7227
3595.93	36.0723
3597.89	37.2051
3599.85	38.3936
3601.81	39.2585
3603.77	39.8308
3605.73	40.6182
3607.69	41.74
3609.65	42.929
3611.61	44.1948
3613.56	45.4395
3615.52	46.7842
3617.47	48.4207
3619.43	50.0605
3621.38	51.5896
3623.33	52.7029
3625.28	53.5894
3627.24	53.3169
3629.19	52.7004
3631.14	50.9724
3633.09	50.5098
3635.04	50.5627
3636.99	51.5637
3638.93	52.3745
3640.88	52.7129
3642.83	52.6033
3644.77	52.1257
3646.72	50.8882
3648.66	48.4553
3650.61	45.9539
3652.55	43.2334
3654.49	40.3787
3656.44	37.4531
3658.38	34.6941
3660.32	32.2869
3662.26	30.4951
3664.2	29.6899
3666.14	29.5686
3668.08	30.4292
3670.01	32.397
3671.95	35.8442
3673.89	39.8562
3675.82	43.991
3677.76	47.8481
3679.69	51.3772
3681.63	54.3865
3683.56	54.7732
3685.5	54.6721
3687.43	54.8999
3689.36	55.5479
3691.29	56.405
3693.22	58.873
3695.15	60.709
3697.08	62.3608
3699.01	63.6266
3700.94	64.7793
3702.86	65.4338
3704.79	65.6567
3706.72	65.6439
3708.64	65.3817
3710.57	64.4183
3712.49	63.0006
3714.41	61.3876
3716.34	59.7195
3718.26	58.0753
3720.18	56.6089
3722.1	54.8552
3724.02	54.1021
3725.94	54.0758
3727.86	55.0092
3729.78	56.1056
3731.7	57.2937
3733.61	58.2275
3735.53	58.7871
3737.45	58.9978
3739.36	59.0031
3741.28	59.196
3743.19	59.5383
3745.11	60.4624
3747.02	62.5287
3748.93	65.3995
3750.84	69.3821
3752.75	74.0975
3754.66	79.5205
3756.57	85.4474
3758.48	91.2175
3760.39	97.4098
3762.3	102.978
3764.21	107.635
3766.12	108.442
3768.02	106.519
3769.93	103.021
3771.83	98.5551
3773.74	93.6787
3775.64	89.8879
3777.54	87.1228
3779.45	85.1536
3781.35	83.4729
3783.25	80.8448
3785.15	78.2518
3787.05	75.8368
3788.95	73.5155
3790.85	75.3162
3792.75	78.9603
3794.65	82.9196
3796.54	86.5156
3798.44	89.814
3800.34	91.23
3802.23	92.999
3804.13	93.7461
3806.02	94.3286
3807.91	94.6344
3809.81	94.6344
3811.7	95.7417
3813.59	98.7028
3815.48	103.257
3817.37	106.609
3819.26	107.255
3821.15	107.409
3823.04	106.731
3824.93	106.229
3826.82	105.49
3828.7	105.281
3830.59	105.762
3832.47	107.577
3834.36	109.671
3836.24	109.485
3838.13	108.966
3840.01	107.192
3841.89	106.107
3843.78	105.486
3845.66	107.916
3847.54	111.326
3849.42	114.766
3851.3	118.132
3853.18	121.053
3855.06	121.688
3856.93	122.154
3858.81	122.208
3860.69	121.737
3862.56	120.453
3864.44	118.321
3866.31	115.963
3868.19	113.137
3870.06	110.493
3871.93	107.426
3873.81	104.55
3875.68	102.369
3877.55	101.091
3879.42	100.708
3881.29	101.378
3883.16	106.761
3885.03	109.412
3886.9	109.579
3888.77	109.074
3890.63	109.16
3892.5	110.8
3894.37	110.752
3896.23	107.873
3898.1	102.025
3899.96	96.6694
3901.82	91.5524
3903.69	87.5919
3905.55	85.2324
3907.41	84.6167
3909.27	85.0861
3911.13	88.1449
3912.99	91.8052
3914.85	95.4602
3916.71	97.9307
3918.57	100.08
3920.43	100.741
3922.28	100.431
3924.14	98.9824
3926	97.2943
3927.85	94.7418
3929.71	90.2726
3931.56	85.4912
3933.41	80.3859
3935.27	76.0834
3937.12	71.8241
3938.97	70.5952
3940.82	70.0529
3942.67	70.1184
3944.52	70.3253
3946.37	69.9121
3948.22	67.7611
3950.07	62.7235
3951.92	56.3129
3953.77	49.307
3955.61	40.6998
3957.46	38.1478
3959.3	37.0957
3961.15	35.5438
3962.99	33.1488
3964.84	30.3549
3966.68	27.4358
3968.52	24.3875
3970.36	21.1731
3972.2	17.845
3974.05	14.5099
3975.89	11.3448
3977.73	8.29468
3979.56	5.54272
3981.4	3.23572
3983.24	1.40393
3985.08	0.143921
3986.92	-0.594604
3988.75	-0.759644
3990.59	-0.5802
3992.42	1.17212
3994.26	3.68726
3996.09	5.62268
3997.92	2.37085
3999.76	-5.93616
