#Acq. time (s)=	15
#Accumulations=	2
#Range (cm-¹)=	100...4000
#Windows=	1
#Auto scanning=	Off
#Autofocus=	Off
#Macrospot=	Off
#AutoExposure=	Off
#Spike filter=	Multiple accum.
#Delay time (s)=	0
#Binning=	1
#Readout mode=	Signal
#DeNoise=	Standard
#ICS correction=	On
#Dark correction=	Off
#Inst. Process=	On
#Detector Gain=	Best Dynamic
#Detector ADC=	50 kHz HS
#Detector temperature (°C)=	-60.09
#Instrument=	LabRAM HR Evol
#Detector=	SIN-EM FIVIS
#Objective=	x50_VIS_LWD
#Grating=	150 (500nm)
#ND Filter=	50%
#Laser=	633nm_Edge
#Hole=	100.021
#Temperature=	0
#Range=	Visible
#StageXY=	75x50mm Scan+
#StageZ=	Z motor
#X (µm)=	0
#Y (µm)=	0
#Z (µm)=	83.3
#Project=	20_05_11
#Sample=	BU20b
#Site=	
#Title=	BU20b-area1-apatite_clear-top_150 (500nm)_633nm_Edge_50%_x50_VIS_LWD_H100um_15sX2
#Remark=	
#Date=	11.05.2020 18:09
#Acquired=	11.05.2020 18:09:27
#Data Range:Extract=	01.07.2021 19:23:37
#Base:Fit=	01.07.2021 19:24:15
#Base:Fit=	01.07.2021 19:24:39
#Base:Fit=	01.07.2021 19:24:47
#Base:Sub=	01.07.2021 19:24:50
100.862	0.160767
104.122	25.0066
107.378	28.6071
110.635	30.3857
113.889	28.9949
117.143	23.5474
120.394	26.1281
123.646	31.2358
126.894	39.3044
130.143	50.7816
133.388	55.2703
136.634	59.3223
139.878	62.0348
143.121	63.9547
146.361	60.264
149.602	56.7281
152.84	57.7917
156.077	61.5123
159.313	67.3784
162.546	73.2329
165.78	78.2291
169.011	82.6948
172.242	87.4952
175.471	92.4716
178.699	103.917
181.925	103.175
185.149	100.25
188.374	98.1873
191.596	95.6853
194.818	86.9917
198.037	90.2583
201.254	125.291
204.472	186.22
207.687	268.717
210.903	303.363
214.115	326.112
217.326	305.734
220.537	277.438
223.746	247.271
226.953	213.343
230.16	207.575
233.365	183
236.568	167.315
239.771	147.835
242.972	127.966
246.171	106.452
249.371	85.0676
252.567	72.5765
255.762	62.7261
258.958	55.8022
262.151	51.8229
265.342	49.481
268.533	50.4094
271.722	59.4307
274.91	72.5316
278.096	87.8013
281.282	103.441
284.466	118.431
287.648	131.827
290.829	144.368
294.01	155.004
297.188	174.531
300.365	178.208
303.541	178.575
306.716	172.144
309.89	161.633
313.061	148.664
316.232	131.909
319.401	112.561
322.57	91.9415
325.737	73.14
328.902	56.0076
332.066	40.2476
335.229	30.4764
338.392	22.1185
341.552	17.9077
344.711	12.5363
347.868	7.67865
351.024	3.88489
354.179	1.18561
357.335	-0.621277
360.487	-1.37
363.638	-1.54224
366.788	-1.07996
369.936	-0.290649
373.084	1.04272
376.23	2.0965
379.376	3.79004
382.519	5.24768
385.661	6.8891
388.802	7.76068
391.942	14.192
395.08	24.323
398.217	27.1588
401.353	25.6442
404.487	39.9297
407.62	43.9401
410.752	52.4814
413.884	62.4523
417.013	89.7676
420.141	158.815
423.268	296.691
426.394	484.93
429.518	758.218
432.641	1030.29
435.763	1048.66
438.883	797.634
442.002	549.984
445.12	477.829
448.237	438.558
451.352	404.886
454.466	380.404
457.579	338.08
460.691	299.267
463.801	255.712
466.91	216.712
470.018	177.338
473.125	146.042
476.23	119.308
479.334	96.9095
482.437	77.9061
485.538	62.701
488.638	51.6431
491.737	45.3301
494.834	39.7589
497.93	34.9822
501.026	31.0273
504.12	28.7428
507.212	27.2345
510.304	26.9409
513.394	27.4468
516.483	28.4105
519.571	27.4664
522.657	24.9703
525.743	25.012
528.825	25.275
531.908	25.5494
534.989	25.9615
538.07	26.0043
541.149	26.3654
544.227	26.8817
547.303	27.4127
550.377	28.8486
553.451	31.5715
556.524	39.2428
559.595	36.913
562.666	39.696
565.735	52.183
568.801	60.6753
571.868	63.236
574.933	78.7319
577.998	115.01
581.061	207.453
584.121	329.666
587.181	535.373
590.241	990.821
593.299	1486.74
596.354	1356.12
599.41	757.728
602.464	441.456
605.517	314.73
608.568	387.427
611.618	522.744
614.668	382.815
617.716	206.797
620.761	142.958
623.807	101.119
626.852	75.1276
629.895	58.3286
632.936	48.2382
635.977	35.2469
639.016	25.2184
642.053	18.4445
645.091	13.2813
648.127	9.91888
651.16	7.61188
654.193	6.33893
657.226	5.67712
660.256	5.66418
663.286	6.20258
666.314	7.12994
669.34	8.29028
672.367	9.84558
675.392	11.6577
678.414	13.5669
681.437	15.5707
684.457	17.5053
687.477	19.4636
690.496	21.1412
693.513	22.5081
696.529	23.4416
699.543	23.7673
702.558	23.4192
705.571	22.345
708.581	20.6164
711.592	18.3396
714.6	15.8425
717.608	13.1232
720.614	9.97522
723.62	7.02374
726.624	4.18298
729.626	1.76086
732.628	-0.117737
735.628	-1.32141
738.628	-1.81622
741.625	-1.43915
744.623	-0.737549
747.618	0.275635
750.613	1.55786
753.605	3.08228
756.598	4.79596
759.588	6.68683
762.578	8.57544
765.566	10.365
768.554	11.8732
771.539	12.982
774.525	13.55
777.508	13.5203
780.49	12.9008
783.472	11.8536
786.451	10.496
789.431	8.99786
792.408	7.40552
795.385	5.83966
798.36	4.13977
801.333	2.66632
804.307	1.42365
807.278	0.5271
810.25	0.0346069
813.219	0.0688477
816.186	0.586975
819.154	1.56366
822.119	3.54504
825.085	5.99084
828.048	8.77722
831.01	11.6215
833.972	13.9608
836.931	15.6202
839.889	17.0453
842.848	18.3144
845.804	19.5178
848.759	20.6
851.714	21.7369
854.666	23.0346
857.617	24.0695
860.569	25.2407
863.518	26.3145
866.465	27.0799
869.413	27.2232
872.359	26.6498
875.303	23.5869
878.246	21.4405
881.19	21.0394
884.13	20.6528
887.07	20.134
890.009	19.5966
892.947	18.4838
895.883	18.09
898.818	19.2572
901.752	22.3293
904.686	25.4031
907.618	28.3254
910.548	28.5353
913.478	33.3615
916.406	39.3549
919.334	44.951
922.26	50.9417
925.184	58.0891
928.108	66.0219
931.03	74.2584
933.953	82.2728
936.873	88.8188
939.792	106.157
942.709	146.538
945.626	209.006
948.542	378.362
951.457	558.391
954.37	999.215
957.282	1858.09
960.193	3264.4
963.103	5573.05
966.012	8168.42
968.919	8363.86
971.825	5524.77
974.731	3029.07
977.636	1466.12
980.539	702.251
983.441	321.143
986.341	180.303
989.241	138.978
992.139	98.6508
995.036	78.5473
997.932	66.53
1000.83	63.4058
1003.72	66.1848
1006.61	68.7617
1009.51	77.6636
1012.4	89.5333
1015.29	105.344
1018.17	123.267
1021.06	148.997
1023.95	173.331
1026.83	196.282
1029.71	218.737
1032.6	253.732
1035.48	288.241
1038.36	368.006
1041.24	511.503
1044.12	737.639
1046.99	1013.13
1049.87	1373.35
1052.74	1789.02
1055.62	1607.15
1058.49	1040.17
1061.36	607.799
1064.23	350.355
1067.1	244.556
1069.97	233.013
1072.84	226.079
1075.7	293.008
1078.56	415.749
1081.43	612.204
1084.29	673.54
1087.15	625.107
1090.01	435.991
1092.87	305.139
1095.73	200.334
1098.58	144.341
1101.44	115.831
1104.29	98.0541
1107.15	86.0989
1110	80.173
1112.85	74.1117
1115.7	68.5555
1118.55	64.2847
1121.4	61.5605
1124.24	59.2531
1127.09	57.2622
1129.94	55.5818
1132.78	53.3288
1135.62	51.3134
1138.46	49.4454
1141.3	47.6724
1144.14	46.1094
1146.98	44.8209
1149.81	43.9665
1152.65	43.4152
1155.49	43.3795
1158.32	43.9222
1161.15	44.6841
1163.98	45.5148
1166.81	46.376
1169.64	47.2691
1172.47	47.6247
1175.3	47.8502
1178.12	47.8857
1180.95	47.7322
1183.77	47.5466
1186.59	46.8956
1189.41	46.1111
1192.23	45.3468
1195.05	44.6306
1197.87	44.0472
1200.69	44.4131
1203.5	45.5223
1206.32	46.9727
1209.13	48.5808
1211.94	50.2264
1214.75	51.9122
1217.56	53.1392
1220.37	53.6031
1223.18	53.6318
1225.99	53.3906
1228.79	52.5963
1231.6	51.6599
1234.4	50.5944
1237.21	49.5031
1240.01	48.539
1242.81	47.1837
1245.61	45.6313
1248.41	43.8182
1251.2	41.8441
1254	39.808
1256.79	37.8819
1259.59	35.9198
1262.38	34.2592
1265.17	32.9266
1267.96	31.7327
1270.75	30.562
1273.54	29.4282
1276.33	28.356
1279.12	26.1195
1281.9	23.8019
1284.69	21.4473
1287.47	19.5148
1290.25	18.7131
1293.03	18.4171
1295.81	18.5345
1298.59	19.6569
1301.37	21.7223
1304.15	23.9032
1306.92	26.2144
1309.7	28.3425
1312.47	29.0193
1315.24	29.4769
1318.01	29.7105
1320.78	29.282
1323.55	28.3235
1326.32	27.0174
1329.09	25.4028
1331.85	23.5816
1334.62	21.7607
1337.38	19.9031
1340.15	18.415
1342.91	17.0583
1345.67	16.0757
1348.43	15.4371
1351.19	15.6147
1353.95	16.3979
1356.7	17.4269
1359.46	18.5941
1362.21	19.717
1364.97	20.3204
1367.72	20.7543
1370.47	21.3027
1373.22	22.0073
1375.97	22.1347
1378.72	22.1356
1381.46	21.965
1384.21	21.6503
1386.96	21.2962
1389.7	20.8668
1392.44	20.4278
1395.18	19.9933
1397.92	19.6077
1400.66	19.1719
1403.4	18.7108
1406.14	18.3369
1408.88	17.9021
1411.61	17.3916
1414.35	16.6589
1417.08	15.5962
1419.81	11.4188
1422.54	10.7396
1425.27	10.6245
1428	10.8312
1430.73	11.033
1433.46	11.0405
1436.18	11.0083
1438.91	11.0974
1441.63	11.2544
1444.36	11.3848
1447.08	11.305
1449.8	10.8673
1452.52	10.1311
1455.24	8.36292
1457.96	6.27747
1460.67	4.18066
1463.39	2.27051
1466.1	0.836914
1468.82	0.138794
1471.53	-0.255737
1474.24	-0.334656
1476.95	-0.143738
1479.66	0.3172
1482.37	0.875305
1485.08	1.43939
1487.78	2.55389
1490.49	4.16797
1493.19	6.05011
1495.9	8.09637
1498.6	9.91016
1501.3	11.5027
1504	12.2495
1506.7	13.1342
1509.4	13.6234
1512.09	14.2677
1514.79	14.8034
1517.49	15.3543
1520.18	15.8976
1522.87	16.1628
1525.56	16.1534
1528.26	15.9119
1530.95	15.3847
1533.63	14.6567
1536.32	13.9687
1539.01	13.0591
1541.7	12.0148
1544.38	10.5447
1547.06	8.78003
1549.75	6.36542
1552.43	2.5827
1555.11	-0.754395
1557.79	-2.80731
1560.47	-3.59802
1563.15	-3.97882
1565.82	-3.33502
1568.5	-2.08466
1571.17	-0.310791
1573.85	1.78546
1576.52	4.20569
1579.19	6.12335
1581.86	8.97974
1584.53	12.0624
1587.2	15.1417
1589.87	17.6833
1592.54	19.9131
1595.2	19.9591
1597.86	19.2399
1600.53	18.1282
1603.19	16.7306
1605.85	15.6852
1608.51	14.6725
1611.17	14.2551
1613.83	13.7138
1616.49	13.2003
1619.15	12.8349
1621.8	12.0777
1624.46	11.1619
1627.11	10.2484
1629.76	9.38141
1632.41	8.95123
1635.06	10.0524
1637.71	11.6369
1640.36	12.9254
1643.01	13.6982
1645.66	13.6182
1648.3	13.1849
1650.95	12.6675
1653.59	11.8548
1656.23	10.957
1658.87	9.78845
1661.52	8.66058
1664.16	7.53284
1666.79	5.92664
1669.43	4.39038
1672.07	3.13928
1674.7	1.91443
1677.34	2.15576
1679.97	3.71997
1682.6	5.4812
1685.24	7.67548
1687.87	9.91791
1690.5	12.1188
1693.13	13.6253
1695.75	14.983
1698.38	15.804
1701.01	16.2168
1703.63	15.9452
1706.25	15.1097
1708.88	14.0294
1711.5	12.5128
1714.12	10.8641
1716.74	8.98956
1719.36	7.15649
1721.98	5.53381
1724.59	4.25159
1727.21	3.29944
1729.82	2.836
1732.44	2.66547
1735.05	2.39526
1737.66	1.82642
1740.27	1.8479
1742.89	1.99353
1745.49	2.46661
1748.1	3.20062
1750.71	4.65265
1753.31	6.31342
1755.92	7.95422
1758.52	9.49908
1761.13	10.6458
1763.73	11.238
1766.33	10.9973
1768.93	10.522
1771.53	9.64557
1774.13	8.48401
1776.73	7.1319
1779.32	5.79883
1781.92	4.42053
1784.51	3.49139
1787.11	2.70819
1789.7	2.28369
1792.29	2.33496
1794.88	2.20868
1797.47	2.38934
1800.06	2.19373
1802.65	2.00226
1805.23	1.72937
1807.82	1.20062
1810.41	1.21875
1812.99	1.36078
1815.57	2.2511
1818.15	3.18896
1820.74	4.19049
1823.32	5.36102
1825.9	6.57745
1828.47	7.60187
1831.05	7.75659
1833.63	7.59216
1836.2	6.04657
1838.78	2.28943
1841.35	2.29822
1843.92	2.22351
1846.49	2.0069
1849.06	1.85095
1851.63	1.66919
1854.2	1.54364
1856.77	1.64526
1859.34	1.67566
1861.9	1.56183
1864.47	1.59631
1867.03	1.46753
1869.59	1.34656
1872.16	1.18396
1874.72	0.902283
1877.28	-0.0205078
1879.84	-1.58466
1882.39	-3.53491
1884.95	-5.2782
1887.51	-6.79669
1890.06	-7.3374
1892.62	-7.49353
1895.17	-6.51843
1897.72	-4.80322
1900.27	-3.44482
1902.82	-2.77942
1905.37	-1.93652
1907.92	-1.11755
1910.47	0.0150146
1913.02	1.26611
1915.56	2.56458
1918.11	3.99658
1920.65	5.25409
1923.2	6.40753
1925.74	7.30902
1928.28	8.02014
1930.82	8.46191
1933.36	8.68756
1935.9	8.69305
1938.43	8.19165
1940.97	7.30664
1943.51	6.16711
1946.04	4.96454
1948.57	3.71655
1951.11	2.35107
1953.64	1.89435
1956.17	1.86896
1958.7	1.98389
1961.23	2.12549
1963.76	2.39667
1966.28	2.65277
1968.81	2.92822
1971.33	3.1908
1973.86	3.37
1976.38	3.43018
1978.91	3.42535
1981.43	3.50085
1983.95	3.44421
1986.47	3.41034
1988.99	3.30554
1991.5	2.91724
1994.02	2.54376
1996.54	1.5152
1999.05	-0.176208
2001.57	-1.24884
2004.08	-2.19635
2006.59	-1.9906
2009.1	-1.09442
2011.61	0.474792
2014.12	2.08264
2016.63	3.75696
2019.14	5.50214
2021.65	6.97235
2024.15	8.50494
2026.66	9.51843
2029.16	10.8344
2031.66	12.093
2034.17	13.8867
2036.67	17.1426
2039.17	19.6401
2041.67	20.6912
2044.17	20.996
2046.66	20.9951
2049.16	20.6766
2051.66	20.2171
2054.15	19.6381
2056.65	18.7712
2059.14	17.984
2061.63	17.045
2064.12	16.136
2066.61	15.2084
2069.1	14.4252
2071.59	13.7804
2074.08	13.3712
2076.56	13.1963
2079.05	12.988
2081.53	12.7061
2084.02	12.4855
2086.5	12.2296
2088.98	12.0932
2091.46	12.4434
2093.94	13.0955
2096.42	13.9208
2098.9	14.7434
2101.38	15.1198
2103.86	15.2628
2106.33	14.7927
2108.81	14.2025
2111.28	13.6317
2113.76	12.9974
2116.23	12.061
2118.7	10.9672
2121.17	9.97681
2123.64	9.08392
2126.11	8.43768
2128.57	8.13086
2131.04	8.53925
2133.51	9.53625
2135.97	10.6999
2138.44	11.9505
2140.9	13.6789
2143.36	15.696
2145.82	17.8841
2148.28	19.9907
2150.74	21.8771
2153.2	23.5452
2155.66	24.72
2158.12	25.0244
2160.57	24.8217
2163.03	24.0239
2165.48	22.3123
2167.94	20.4175
2170.39	18.5397
2172.84	16.8341
2175.29	15.5735
2177.74	14.735
2180.19	14.2598
2182.64	14.1966
2185.09	14.3702
2187.53	14.9673
2189.98	15.8951
2192.42	17.446
2194.86	19.1504
2197.31	20.927
2199.75	22.269
2202.19	21.399
2204.63	20.4434
2207.07	19.4569
2209.51	18.4681
2211.95	17.8009
2214.38	17.3068
2216.82	16.9084
2219.25	16.7391
2221.69	16.8426
2224.12	17.1046
2226.55	17.6547
2228.98	18.405
2231.41	19.369
2233.84	20.7952
2236.27	22.4037
2238.7	23.9395
2241.13	25.1571
2243.55	25.8702
2245.98	26.0317
2248.4	25.199
2250.83	23.2434
2253.25	20.8361
2255.67	18.3695
2258.09	16.0359
2260.51	14.3297
2262.93	13.5448
2265.35	13.2949
2267.76	13.7685
2270.18	14.7168
2272.6	16.3738
2275.01	18.2242
2277.43	19.8533
2279.84	21.0668
2282.25	21.3709
2284.66	20.9266
2287.07	20.0645
2289.48	19.0001
2291.89	17.6299
2294.3	16.0896
2296.7	13.2487
2299.11	10.3022
2301.52	7.50696
2303.92	6.25867
2306.32	6.00543
2308.73	6.59241
2311.13	7.7146
2313.53	10.0894
2315.93	12.7414
2318.33	15.5305
2320.73	18.072
2323.12	20.4218
2325.52	22.4435
2327.92	24.0001
2330.31	25.2206
2332.7	26.1116
2335.1	26.831
2337.49	27.252
2339.88	27.4213
2342.27	27.2245
2344.66	26.7117
2347.05	25.5228
2349.44	24.0486
2351.83	22.2968
2354.21	20.6335
2356.6	19.0267
2358.98	18.511
2361.36	18.6675
2363.75	18.9852
2366.13	19.3608
2368.51	19.8557
2370.89	20.322
2373.27	19.9577
2375.65	19.4063
2378.03	18.8393
2380.4	18.2325
2382.78	17.7227
2385.15	17.6838
2387.53	18.0682
2389.9	18.932
2392.28	19.777
2394.65	20.6668
2397.02	21.5533
2399.39	22.4996
2401.76	23.2687
2404.12	24.0564
2406.49	24.6735
2408.86	25.085
2411.23	25.242
2413.59	24.9243
2415.95	24.3679
2418.32	23.6388
2420.68	22.7303
2423.04	21.7522
2425.4	20.7514
2427.76	19.8591
2430.12	19.1345
2432.48	18.8297
2434.84	18.7176
2437.19	18.7493
2439.55	18.8948
2441.9	19.138
2444.26	19.6569
2446.61	19.7574
2448.96	19.8124
2451.32	19.5182
2453.67	19.1458
2456.02	19.9828
2458.37	20.8311
2460.71	22.2014
2463.06	23.2515
2465.41	24.1514
2467.75	25.0295
2470.1	25.4694
2472.44	25.8986
2474.79	25.9982
2477.13	25.9617
2479.47	25.7852
2481.81	25.5234
2484.15	25.4139
2486.49	25.084
2488.83	24.9408
2491.17	24.1588
2493.5	22.5986
2495.84	20.6005
2498.17	18.3461
2500.51	17.5681
2502.84	17.5258
2505.17	18.0158
2507.5	18.3062
2509.84	18.6129
2512.17	18.938
2514.5	19.3557
2516.82	19.9307
2519.15	20.6072
2521.48	21.1812
2523.8	22.0932
2526.13	23.1339
2528.45	24.4623
2530.78	25.8677
2533.1	27.252
2535.42	28.4585
2537.74	29.1732
2540.06	29.6559
2542.38	29.8086
2544.7	29.5017
2547.02	28.7595
2549.33	27.8761
2551.65	26.9949
2553.97	26.2874
2556.28	25.8147
2558.59	25.4373
2560.91	25.3124
2563.22	24.9859
2565.53	24.4816
2567.84	23.7133
2570.15	22.6912
2572.46	21.5971
2574.77	20.5358
2577.07	19.5851
2579.38	18.5689
2581.68	18.3551
2583.99	18.6195
2586.29	19.2685
2588.6	20.1161
2590.9	20.9211
2593.2	21.5665
2595.5	21.842
2597.8	22.4362
2600.1	22.9974
2602.4	24.0265
2604.69	25.0974
2606.99	26.2253
2609.29	27.3483
2611.58	28.3898
2613.88	29.1996
2616.17	29.6866
2618.46	30.0241
2620.75	29.8275
2623.04	29.5044
2625.33	29.1324
2627.62	28.7088
2629.91	28.2312
2632.2	27.7725
2634.49	27.6855
2636.77	27.6226
2639.06	27.9434
2641.34	28.3356
2643.63	28.7195
2645.91	29.0083
2648.19	29.1035
2650.47	29.1401
2652.75	28.6301
2655.03	28.0691
2657.31	27.2581
2659.59	26.3787
2661.87	25.3546
2664.14	24.1368
2666.42	22.9654
2668.69	21.7418
2670.97	20.8571
2673.24	20.0844
2675.51	20.0354
2677.79	21.0432
2680.06	22.7402
2682.33	23.6139
2684.6	23.6277
2686.87	23.0587
2689.13	22.2718
2691.4	21.3405
2693.67	20.3197
2695.93	19.3204
2698.2	18.3179
2700.46	17.6816
2702.72	17.0765
2704.99	16.4555
2707.25	16.0865
2709.51	15.7545
2711.77	16.4084
2714.03	24.9296
2716.28	23.5696
2718.54	21.6422
2720.8	19.3887
2723.05	16.9774
2725.31	14.8672
2727.56	12.7538
2729.82	10.3922
2732.07	8.30969
2734.32	6.77356
2736.57	5.58954
2738.83	7.19397
2741.07	9.32147
2743.32	11.6519
2745.57	14.0715
2747.82	14.8243
2750.07	16.6965
2752.31	18.695
2754.56	19.8042
2756.8	20.6354
2759.04	21.0224
2761.29	20.5281
2763.53	20.0647
2765.77	19.4468
2768.01	18.4749
2770.25	17.2023
2772.49	15.7902
2774.73	14.3181
2776.96	12.8284
2779.2	11.3438
2781.44	10.2363
2783.67	9.23541
2785.9	9.4422
2788.14	9.47656
2790.37	9.50281
2792.6	10.2731
2794.83	11.3942
2797.06	12.4373
2799.29	12.5792
2801.52	12.9665
2803.75	13.2798
2805.98	13.8793
2808.2	14.3211
2810.43	14.3393
2812.65	14.0812
2814.88	13.5417
2817.1	12.0237
2819.32	9.41278
2821.54	6.32202
2823.77	3.38611
2825.99	0.688538
2828.2	-0.89563
2830.42	-1.9953
2832.64	-2.54358
2834.86	-2.16705
2837.08	-0.782166
2839.29	1.06592
2841.51	3.66016
2843.72	7.04608
2845.93	11.0228
2848.15	14.8913
2850.36	17.9904
2852.57	20.2547
2854.78	21.2521
2856.99	20.6609
2859.2	20.147
2861.41	18.5632
2863.61	15.647
2865.82	12.6376
2868.02	9.83752
2870.23	8.3421
2872.43	7.46069
2874.64	7.2663
2876.84	7.39728
2879.04	8.14612
2881.24	9.22888
2883.44	10.8198
2885.64	12.5511
2887.84	14.1943
2890.04	15.6554
2892.24	16.8798
2894.43	17.7607
2896.63	17.4431
2898.82	16.768
2901.02	15.8389
2903.21	14.8167
2905.41	13.85
2907.6	13.1407
2909.79	13.0334
2911.98	13.4953
2914.17	13.3152
2916.36	13.0634
2918.55	12.8154
2920.74	12.569
2922.92	12.7418
2925.11	13.7852
2927.29	15.2199
2929.48	17.6611
2931.66	20.171
2933.84	22.4658
2936.03	24.0261
2938.21	23.9462
2940.39	22.7108
2942.57	20.6974
2944.75	17.793
2946.93	14.5357
2949.11	11.184
2951.28	8.45386
2953.46	6.45435
2955.64	4.85394
2957.81	4.18921
2959.98	4.17889
2962.16	5.02124
2964.33	6.34216
2966.5	8.36841
2968.67	10.7856
2970.84	14.3666
2973.01	18.0394
2975.18	21.52
2977.35	24.4851
2979.52	25.8029
2981.68	26.1452
2983.85	25.6464
2986.02	24.3174
2988.18	22.5214
2990.34	20.4922
2992.51	18.3675
2994.67	16.8704
2996.83	15.8059
2998.99	15.3448
3001.15	15.4066
3003.31	15.8629
3005.47	16.3907
3007.63	17.0696
3009.78	17.7616
3011.94	15.4343
3014.1	13.1939
3016.25	11.7752
3018.41	13.7403
3020.56	16.4069
3022.71	14.5831
3024.86	11.5882
3027.02	10.4033
3029.17	10.0729
3031.32	9.55499
3033.47	9.22272
3035.61	8.47827
3037.76	7.60486
3039.91	7.76501
3042.05	7.92365
3044.2	8.35175
3046.34	8.71698
3048.49	8.58978
3050.63	8.4151
3052.77	7.62915
3054.92	6.46442
3057.06	5.08557
3059.2	3.74731
3061.34	2.39716
3063.48	1.30975
3065.61	0.542542
3067.75	0.803528
3069.89	1.87494
3072.02	3.10339
3074.16	4.37201
3076.29	5.74329
3078.43	6.63574
3080.56	7.90405
3082.69	9.23694
3084.82	10.7789
3086.96	12.5483
3089.09	13.6148
3091.22	14.501
3093.34	15.0947
3095.47	15.7928
3097.6	16.8878
3099.73	18.1333
3101.85	19.9412
3103.98	19.7804
3106.1	17.6779
3108.23	16.246
3110.35	15.5699
3112.47	15.9066
3114.59	17.8379
3116.71	20.048
3118.83	22.4763
3120.95	24.1354
3123.07	24.2565
3125.19	22.2537
3127.31	19.9993
3129.42	17.4517
3131.54	15.0257
3133.65	12.5422
3135.77	10.6794
3137.88	9.37372
3140	7.7381
3142.11	6.45642
3144.22	4.65137
3146.33	2.67786
3148.44	0.510071
3150.55	-0.449463
3152.66	-0.217041
3154.77	-0.236206
3156.87	-0.264099
3158.98	-0.124023
3161.09	-0.154846
3163.19	0.535156
3165.29	1.78967
3167.4	3.27527
3169.5	4.76166
3171.6	6.30023
3173.71	7.78839
3175.81	9.02283
3177.91	10.0564
3180.01	10.8492
3182.11	11.3824
3184.2	11.6769
3186.3	11.9109
3188.4	12.0614
3190.49	12.1741
3192.59	12.3601
3194.68	12.6095
3196.78	13.2991
3198.87	14.0626
3200.96	14.735
3203.05	15.2876
3205.15	15.9657
3207.24	16.6179
3209.33	16.8525
3211.41	18.5077
3213.5	20.7666
3215.59	19.6431
3217.68	18.4799
3219.76	17.6848
3221.85	17.6384
3223.93	18.0269
3226.02	18.9092
3228.1	16.686
3230.18	13.7189
3232.27	10.8759
3234.35	8.91699
3236.43	7.185
3238.51	5.72015
3240.59	4.52606
3242.66	3.90173
3244.74	4.13879
3246.82	5.07422
3248.9	7.01678
3250.97	9.11804
3253.05	12.054
3255.12	14.7529
3257.2	17.5976
3259.27	18.6192
3261.34	18.2437
3263.41	17.3646
3265.48	16.3657
3267.55	15.2384
3269.62	14.2511
3271.69	13.8344
3273.76	13.0403
3275.83	12.3325
3277.89	11.619
3279.96	10.937
3282.02	10.5925
3284.09	10.4169
3286.15	10.6033
3288.22	10.7792
3290.28	6.01227
3292.34	4.79639
3294.4	4.11725
3296.46	3.93079
3298.52	3.73108
3300.58	3.66785
3302.64	4.25323
3304.7	5.55762
3306.75	6.82928
3308.81	8.11816
3310.87	9.32953
3312.92	10.1732
3314.98	10.7032
3317.03	10.5847
3319.08	9.62976
3321.14	8.52448
3323.19	7.01373
3325.24	5.50854
3327.29	4.87726
3329.34	5.20166
3331.39	5.41797
3333.44	5.68854
3335.48	5.97266
3337.53	6.35669
3339.58	6.61761
3341.62	6.89551
3343.67	7.19537
3345.71	7.51898
3347.75	7.87231
3349.8	8.1048
3351.84	8.2229
3353.88	8.33844
3355.92	8.37256
3357.96	8.50507
3360	8.64508
3362.04	8.88623
3364.08	9.23413
3366.11	10.2788
3368.15	10.4168
3370.19	6.7417
3372.22	3.87592
3374.26	1.93579
3376.29	0.5802
3378.32	0.532349
3380.36	1.92975
3382.39	6.77551
3384.42	8.64551
3386.45	8.73145
3388.48	7.0047
3390.51	5.45685
3392.54	4.19482
3394.57	3.20392
3396.59	2.6618
3398.62	2.55786
3400.65	2.4389
3402.67	3.72296
3404.7	5.71967
3406.72	7.62482
3408.74	8.44281
3410.77	8.97211
3412.79	9.34344
3414.81	9.6767
3416.83	9.75342
3418.85	10.0527
3420.87	10.0153
3422.89	9.96722
3424.91	9.86365
3426.92	9.86066
3428.94	9.98291
3430.96	8.03418
3432.97	5.63745
3434.98	3.21973
3437	0.96991
3439.01	-0.81665
3441.02	-2.41351
3443.04	-2.34186
3445.05	-1.75922
3447.06	-0.965515
3449.07	0.0810547
3451.08	1.25653
3453.09	3.10864
3455.09	5.39832
3457.1	7.73956
3459.11	9.96918
3461.11	12.0466
3463.12	13.9297
3465.13	15.593
3467.13	16.9227
3469.13	17.9813
3471.13	8.84412
3473.14	8.40466
3475.14	8.95654
3477.14	9.88208
3479.14	19.53
3481.14	19.4583
3483.14	18.5541
3485.14	17.3528
3487.13	16.7239
3489.13	16.6134
3491.13	16.7687
3493.12	17.8277
3495.12	18.036
3497.11	18.3052
3499.1	18.7985
3501.1	19.4575
3503.09	20.3284
3505.08	21.3071
3507.07	22.6317
3509.06	24.2115
3511.05	26.1594
3513.04	28.6259
3515.03	31.313
3517.02	34.2441
3519	36.1361
3520.99	37.7623
3522.98	40.0899
3524.96	43.3705
3526.95	47.5307
3528.93	52.316
3530.91	56.653
3532.89	60.6362
3534.88	64.5238
3536.86	67.3477
3538.84	66.277
3540.82	63.3443
3542.8	59.3584
3544.78	54.8063
3546.75	49.8248
3548.73	45.2954
3550.71	41.4421
3552.68	37.6603
3554.66	34.5592
3556.63	32.4751
3558.61	30.8999
3560.58	29.9271
3562.55	29.1353
3564.53	28.3589
3566.5	27.4125
3568.47	26.0508
3570.44	24.7944
3572.41	23.5892
3574.38	22.4121
3576.34	21.2722
3578.31	20.2308
3580.28	19.3514
3582.25	18.9617
3584.21	17.6343
3586.18	15.8435
3588.14	14.091
3590.1	12.7875
3592.07	10.0604
3594.03	8.79382
3595.99	8.13019
3597.95	7.68384
3599.91	7.50647
3601.87	7.28516
3603.83	7.0379
3605.79	6.83832
3607.75	6.77985
3609.71	6.73627
3611.66	6.88403
3613.62	6.41119
3615.58	4.92108
3617.53	3.55859
3619.49	2.35016
3621.44	1.19324
3623.39	0.495667
3625.34	-0.0509033
3627.3	-0.00524902
3629.25	0.559692
3631.2	1.42035
3633.15	2.24548
3635.1	2.93634
3637.05	3.46307
3638.99	3.65637
3640.94	3.90619
3642.89	4.16901
3644.83	3.72253
3646.78	1.49292
3648.72	0.116943
3650.67	-0.56311
3652.61	-0.420044
3654.55	0.201355
3656.5	1.31915
3658.44	2.93274
3660.38	4.95197
3662.32	5.88898
3664.26	5.29175
3666.2	4.43726
3668.14	3.5072
3670.07	2.56018
3672.01	1.53461
3673.95	0.575745
3675.88	-0.51416
3677.82	-1.68671
3679.75	-2.77222
3681.69	-3.7428
3683.62	-4.50702
3685.55	-5.12042
3687.49	-5.11523
3689.42	-4.73505
3691.35	-4.07013
3693.28	-3.21173
3695.21	-2.28717
3697.14	-1.02087
3699.07	0.352356
3700.99	1.84558
3702.92	3.28156
3704.85	4.62842
3706.77	5.95422
3708.7	7.17218
3710.62	8.20099
3712.55	9.03986
3714.47	9.68237
3716.39	10.1956
3718.32	10.7181
3720.24	10.8876
3722.16	10.6841
3724.08	10.1514
3726	9.67963
3727.92	9.16479
3729.84	8.68085
3731.76	8.02631
3733.67	7.18152
3735.59	5.9787
3737.51	7.06818
3739.42	9.12952
3741.34	11.9116
3743.25	12.2206
3745.16	12.1099
3747.08	11.8528
3748.99	11.3365
3750.9	10.6106
3752.81	9.66132
3754.72	8.59601
3756.63	7.73077
3758.54	5.73999
3760.45	3.74756
3762.36	1.74463
3764.27	0.146484
3766.17	-1.16791
3768.08	-0.52301
3769.99	0.323792
3771.89	1.43433
3773.79	2.99896
3775.7	4.05212
3777.6	4.51111
3779.5	4.72314
3781.41	5.22449
3783.31	5.78705
3785.21	6.57153
3787.11	7.39771
3789.01	8.01727
3790.91	8.59222
3792.81	8.80951
3794.7	8.80804
3796.6	8.52997
3798.5	7.62811
3800.39	6.31451
3802.29	4.86151
3804.18	3.45459
3806.08	1.82465
3807.97	0.885803
3809.86	0.750427
3811.76	1.17645
3813.65	1.60278
3815.54	1.85632
3817.43	2.21503
3819.32	2.18475
3821.21	2.42072
3823.1	2.72827
3824.99	3.57275
3826.87	4.6944
3828.76	5.95782
3830.65	7.27063
3832.53	8.35968
3834.42	7.15613
3836.3	6.79413
3838.18	6.57898
3840.07	5.34454
3841.95	4.07178
3843.83	3.06818
3845.71	2.66681
3847.6	2.45959
3849.48	2.41559
3851.36	2.50946
3853.23	2.73871
3855.11	3.06659
3856.99	3.39948
3858.87	3.6983
3860.74	3.68707
3862.62	3.63324
3864.5	3.37921
3866.37	2.53955
3868.24	1.8335
3870.12	1.1615
3871.99	0.744995
3873.86	0.717163
3875.74	1.29932
3877.61	2.47681
3879.48	5.46631
3881.35	2.9353
3883.22	1.95013
3885.09	1.58472
3886.95	2.52209
3888.82	2.45013
3890.69	3.07306
3892.56	4.16492
3894.42	5.75238
3896.29	-1.552
3898.15	-17.7154
3900.02	11.2054
3901.88	12.7292
3903.74	14.2318
3905.61	14.4686
3907.47	13.7334
3909.33	12.6678
3911.19	11.5774
3913.05	10.9412
3914.91	10.6694
3916.77	10.4078
3918.63	11.2221
3920.48	12.3888
3922.34	9.52539
3924.2	6.63254
3926.05	4.20377
3927.91	2.75769
3929.76	2.11697
3931.62	3.82034
3933.47	3.58936
3935.32	4.707
3937.18	6.69897
3939.03	8.14395
3940.88	9.34793
3942.73	9.85583
3944.58	10.038
3946.43	9.29755
3948.28	8.30151
3950.13	6.97668
3951.97	6.60571
3953.82	8.71024
3955.67	11.5658
3957.51	16.3614
3959.36	19.6991
3961.2	14.0291
3963.05	9.57312
3964.89	6.87079
3966.74	5.30765
3968.58	1.31784
3970.42	-3.30569
3972.26	-0.908447
3974.1	0.474304
3975.94	0.252808
3977.78	-0.946106
3979.62	-0.609406
3981.46	0.599854
3983.3	2.16205
3985.13	4.26096
3986.97	6.54764
3988.81	8.69043
3990.64	9.85773
3992.48	11.2811
3994.31	9.01761
3996.15	5.58798
3997.98	5.4903
3999.81	6.78711
