#Acq. time (s)=	15
#Accumulations=	2
#Range (cm-¹)=	100...4000
#Windows=	1
#Auto scanning=	Off
#Autofocus=	Off
#Macrospot=	Off
#AutoExposure=	Off
#Spike filter=	Multiple accum.
#Delay time (s)=	0
#Binning=	1
#Readout mode=	Signal
#DeNoise=	Standard
#ICS correction=	On
#Dark correction=	Off
#Inst. Process=	On
#Detector Gain=	Best Dynamic
#Detector ADC=	50 kHz HS
#Detector temperature (°C)=	-60.09
#Instrument=	LabRAM HR Evol
#Detector=	SIN-EM FIVIS
#Objective=	x50_VIS_LWD
#Grating=	150 (500nm)
#ND Filter=	100%
#Laser=	633nm_Edge
#Hole=	100.021
#Temperature=	0
#Range=	Visible
#StageXY=	75x50mm Scan+
#StageZ=	Z motor
#X (µm)=	0
#Y (µm)=	0
#Z (µm)=	875.9
#Project=	20_09_03
#Sample=	BU18FA12
#Site=	
#Title=	BU12-mineralA-3_150 (500nm)_633nm_Edge_100%_x50_VIS_LWD_H100um_15sx2
#Remark=	
#Date=	03.09.2020 11:22
#Acquired=	03.09.2020 11:22:12
#Data Range:Extract=	01.07.2021 19:23:37
#Base:Fit=	01.07.2021 19:24:15
#Base:Fit=	01.07.2021 19:24:39
#Base:Fit=	01.07.2021 19:24:47
#Base:Sub=	01.07.2021 19:24:50
100.474	14.7701
103.734	9.20422
106.99	13.146
110.247	20.6829
113.501	28.0399
116.756	35.2122
120.007	42.1976
123.258	48.9921
126.507	55.5931
129.756	57.9186
133.002	68.7262
136.248	73.7791
139.491	75.4908
142.735	73.7007
145.975	68.9443
149.216	61.4491
152.454	51.9841
155.691	31.1956
158.927	16.0663
162.161	9.69128
165.395	1.396
168.626	-1.95581
171.858	-2.77588
175.086	1.20471
178.315	1.62878
181.541	5.73389
184.765	7.73438
187.99	9.73206
191.212	12.0952
194.434	15.222
197.653	21.3085
200.871	22.2863
204.089	22.3901
207.305	21.7517
210.52	20.0964
213.732	17.3098
216.944	13.3525
220.155	10.7472
223.364	8.53748
226.571	7.16528
229.779	6.64783
232.983	7.27173
236.187	9.36841
239.39	12.3485
242.591	16.3364
245.79	15.1581
248.99	13.8464
252.187	12.2706
255.382	10.3215
258.578	8.10291
261.77	5.82471
264.962	3.73975
268.152	1.97058
271.342	0.75061
274.53	0.0755615
277.716	0.12439
280.903	-2.17371
284.086	5.1947
287.269	11.2002
290.45	31.3015
293.631	33.6147
296.809	34.6641
299.987	33.9585
303.162	31.4617
306.338	36.2236
309.512	58.3752
312.684	49.3053
315.854	60.4742
319.024	98.744
322.193	154.635
325.36	239.905
328.525	199.49
331.689	102.678
334.852	56.9056
338.015	31.5865
341.176	21.1627
344.335	12.17
347.492	9.91699
350.649	8.90894
353.804	8.43237
356.959	10.5743
360.112	3.50598
363.263	7.04553
366.413	4.87781
369.561	9.25952
372.709	10.0035
375.855	16.7935
379.001	22.4784
382.145	32.7097
385.287	55.7957
388.428	82.7167
391.568	131.371
394.706	259.21
397.843	505.395
400.979	533.558
404.114	397.963
407.247	282.592
410.379	162.613
413.511	131.522
416.641	129.561
419.769	136.901
422.896	155.309
426.022	159.539
429.146	133.16
432.269	114.869
435.391	105.409
438.512	111.765
441.631	118.554
444.749	124.839
447.866	131.075
450.981	128.386
454.096	123.692
457.209	109.005
460.32	90.922
463.431	77.4965
466.54	68.0001
469.648	62.4628
472.755	58.4741
475.86	54.443
478.964	51.8136
482.067	50.5376
485.169	51.5693
488.269	58.5153
491.368	61.2448
494.465	64.4523
497.562	65.6667
500.657	66.52
503.751	67.2384
506.844	68.2311
509.936	66.6877
513.026	74.1295
516.115	80.5444
519.203	95.1371
522.29	108.839
525.375	138.264
528.458	144.971
531.541	148.747
534.622	149.664
537.703	148.16
540.782	127.344
543.86	112.514
546.937	100.608
550.011	89.9143
553.085	80.5564
556.158	79.7151
559.23	81.9978
562.3	81.7485
565.369	85.1001
568.436	86.4147
571.503	88.6361
574.568	93.3474
577.633	99.0211
580.696	104.978
583.756	110.266
586.817	114.255
589.876	116.603
592.934	117.29
595.99	116.358
599.046	113.571
602.1	109.604
605.153	104.824
608.204	99.8311
611.255	94.3842
614.304	88.4332
617.353	82.3033
620.398	76.4918
623.444	71.6349
626.489	67.5367
629.533	63.8899
632.573	60.7943
635.614	58.2443
638.654	56.1857
641.691	54.6049
644.729	53.4822
647.765	55.561
650.799	58.2527
653.832	61.6436
656.865	65.7834
659.895	70.9056
662.925	76.7365
665.954	89.3866
668.98	93.0298
672.006	100.011
675.031	122.013
678.054	189.414
681.077	419.002
684.097	692.936
687.118	1108.96
690.137	1123.49
693.153	775.611
696.17	494.343
699.184	300.942
702.199	217.076
705.212	166.297
708.222	140.498
711.233	113.522
714.241	97.3677
717.25	81.6879
720.256	72.4972
723.262	59.2318
726.266	50.7137
729.269	47.0731
732.271	45.49
735.271	43.5281
738.271	41.8138
741.268	43.2638
744.266	44.4453
747.261	45.1014
750.256	44.6942
753.249	43.5875
756.241	45.27
759.232	42.5176
762.222	47.2589
765.21	62.1443
768.198	76.4727
771.184	90.8601
774.169	98.4601
777.152	97.7378
780.136	82.5839
783.117	75.4004
786.096	70.5704
789.076	63.6549
792.053	56.5966
795.031	50.125
798.005	43.7964
800.981	37.7272
803.953	31.7705
806.924	25.8794
809.896	19.892
812.865	16.5945
815.834	13.3522
818.801	10.1858
821.766	9.70825
824.732	10.7262
827.695	13.5441
830.657	17.1088
833.619	21.1848
836.579	25.1252
839.537	30.1096
842.496	34.392
845.452	37.2007
848.407	38.7682
851.362	38.9568
854.314	37.8834
857.266	35.4764
860.217	31.7933
863.166	26.8525
866.114	20.6666
869.062	18.2417
872.008	15.9443
874.952	13.9747
877.896	12.2189
880.839	11.0043
883.78	10.2872
886.72	10.1969
889.658	10.7206
892.597	11.9893
895.534	14.0404
898.469	16.834
901.403	20.6326
904.337	24.5585
907.269	26.4819
910.199	27.5266
913.129	28.0203
916.058	28.0565
918.985	28.369
921.911	28.3701
924.836	28.2869
927.76	27.533
930.682	19.9071
933.605	16.714
936.525	14.6217
939.444	13.2179
942.362	12.3911
945.279	11.8992
948.194	12.066
951.11	12.5323
954.023	13.0901
956.935	12.8219
959.846	7.99658
962.756	3.92834
965.665	0.996094
968.573	-0.829468
971.479	-1.47717
974.386	-1.04822
977.29	0.52063
980.193	3.16418
983.095	6.90259
985.996	11.8025
988.895	17.7758
991.794	29.3848
994.691	29.4763
997.587	44.5254
1000.48	62.1764
1003.38	86.2921
1006.27	108.211
1009.16	133.534
1012.05	167.239
1014.94	170.053
1017.83	161.533
1020.72	139.705
1023.6	101.166
1026.49	83.5973
1029.37	63.0155
1032.25	51.2615
1035.14	38.334
1038.02	32.0204
1040.9	25.3569
1043.77	26.6785
1046.65	21.4592
1049.53	30.15
1052.4	40.8075
1055.28	52.929
1058.15	66.0966
1061.02	87.749
1063.89	101.306
1066.76	112.948
1069.63	122.009
1072.49	126.854
1075.36	124.661
1078.22	105.133
1081.09	95.8678
1083.95	81.6959
1086.81	68.1624
1089.67	55.1626
1092.53	42.7335
1095.39	31.0221
1098.25	19.915
1101.1	9.92139
1103.95	8.99939
1106.81	5.77771
1109.66	4.23608
1112.51	3.98157
1115.36	5.0033
1118.21	7.36023
1121.06	10.9984
1123.91	15.6007
1126.75	20.6157
1129.6	25.1804
1132.44	29.3971
1135.28	32.981
1138.12	35.8314
1140.96	37.4419
1143.8	37.1005
1146.64	35.1852
1149.48	35.8677
1152.31	30.2866
1155.15	18.5952
1157.98	12.9948
1160.81	8.72888
1163.64	6.01575
1166.47	4.96924
1169.3	5.89197
1172.13	8.48401
1174.96	11.5248
1177.78	13.9946
1180.61	14.5115
1183.43	14.3627
1186.25	16.0442
1189.08	19.3745
1191.9	23.702
1194.71	26.7849
1197.53	29.1375
1200.35	31.5564
1203.17	34.1954
1205.98	37.1628
1208.8	40.2955
1211.61	43.9784
1214.42	47.9175
1217.23	52.1494
1220.04	56.7288
1222.85	61.5002
1225.65	66.4789
1228.46	71.6322
1231.27	76.8097
1234.07	81.7554
1236.87	86.774
1239.67	91.5541
1242.47	95.0627
1245.27	95.7964
1248.07	93.7988
1250.87	88.3
1253.67	80.3811
1256.46	71.3685
1259.26	62.1934
1262.05	51.7585
1264.84	41.6892
1267.63	32.8328
1270.42	25.235
1273.21	18.9393
1276	13.9849
1278.78	10.4886
1281.57	8.33313
1284.35	7.8136
1287.14	9.50977
1289.92	14.0153
1292.7	18.1068
1295.48	22.3842
1298.26	26.355
1301.04	30.0358
1303.81	33.3759
1306.59	35.8691
1309.37	37.3251
1312.14	37.314
1314.91	35.6401
1317.68	33.3586
1320.45	31.4778
1323.22	28.8258
1325.99	26.4104
1328.76	24.2562
1331.53	22.4969
1334.29	21.2903
1337.05	20.6699
1339.82	20.7079
1342.58	21.2198
1345.34	22.4216
1348.1	24.0948
1350.86	26.2899
1353.62	28.843
1356.37	29.5795
1359.13	29.0676
1361.88	28.725
1364.64	28.4722
1367.39	28.0197
1370.14	27.3148
1372.89	26.369
1375.64	24.9958
1378.39	23.1925
1381.14	20.9982
1383.88	18.2771
1386.63	15.3716
1389.37	12.4965
1392.12	10.2949
1394.86	8.81274
1397.6	8.31482
1400.34	8.39307
1403.08	8.68018
1405.81	9.04272
1408.55	9.4375
1411.29	9.69336
1414.02	9.94995
1416.75	10.1002
1419.49	10.1207
1422.22	10.0358
1424.95	9.70447
1427.68	9.27612
1430.41	8.54309
1433.13	7.54785
1435.86	6.36963
1438.58	4.79919
1441.31	2.96863
1444.03	1.59106
1446.75	0.816772
1449.48	0.33667
1452.2	0.0704346
1454.91	0.0333252
1457.63	0.0841064
1460.35	0.282959
1463.06	0.475464
1465.78	0.764771
1468.49	1.2583
1471.21	1.91016
1473.92	2.83569
1476.63	4.05518
1479.34	5.47961
1482.05	7.09875
1484.75	8.8031
1487.46	10.6367
1490.17	12.1923
1492.87	13.4438
1495.57	14.6208
1498.28	15.799
1500.98	18.3533
1503.68	23.1569
1506.38	27.3662
1509.08	28.6681
1511.77	27.2773
1514.47	25.8005
1517.16	24.6364
1519.86	23.7111
1522.55	22.8872
1525.24	22.1528
1527.94	21.4303
1530.63	20.7128
1533.31	19.5183
1536	18.234
1538.69	16.989
1541.38	16.8436
1544.06	17.6101
1546.74	18.4542
1549.43	18.9777
1552.11	19.4635
1554.79	18.8341
1557.47	18.1326
1560.15	17.3444
1562.83	16.6235
1565.5	15.9883
1568.18	15.4805
1570.85	15.1647
1573.53	15.1497
1576.2	15.4713
1578.87	15.8618
1581.54	16.3306
1584.21	16.8231
1586.88	17.356
1589.55	17.9116
1592.22	18.4233
1594.88	18.9722
1597.55	19.4216
1600.21	19.741
1602.87	20.0337
1605.54	20.2865
1608.2	20.4369
1610.86	20.4911
1613.51	20.5785
1616.17	20.5726
1618.83	20.594
1621.48	20.5552
1624.14	20.522
1626.79	20.4922
1629.45	20.462
1632.1	20.4539
1634.75	20.4949
1637.4	20.7314
1640.05	21.0792
1642.69	21.39
1645.34	21.7062
1647.99	22.1832
1650.63	22.7603
1653.28	23.4349
1655.92	24.3271
1658.56	24.3674
1661.2	25.7402
1663.84	25.9608
1666.48	25.6416
1669.12	23.8024
1671.75	21.0466
1674.39	17.8069
1677.02	14.6594
1679.66	11.4843
1682.29	8.31042
1684.92	5.57312
1687.55	-0.0544434
1690.18	-0.410767
1692.81	-2.76123
1695.44	-0.251343
1698.07	3.06189
1700.69	8.27124
1703.32	12.7317
1705.94	16.1948
1708.56	18.6018
1711.19	19.771
1713.81	19.9218
1716.43	18.4067
1719.05	16.3665
1721.67	16.1793
1724.28	16.3977
1726.9	22.9644
1729.51	24.4298
1732.13	25.468
1734.74	25.871
1737.35	25.8783
1739.96	25.6499
1742.57	24.4141
1745.18	23.0624
1747.79	21.6667
1750.4	20.0712
1753.01	18.9489
1755.61	18.106
1758.21	17.4675
1760.82	16.9015
1763.42	16.5138
1766.02	16.2269
1768.62	16.0151
1771.22	15.9354
1773.82	15.8636
1776.42	15.9323
1779.01	15.7847
1781.61	16.1512
1784.2	16.4778
1786.8	16.9391
1789.39	17.4393
1791.98	17.9656
1794.57	18.5575
1797.16	19.101
1799.75	19.3507
1802.34	19.553
1804.93	19.7784
1807.51	19.8235
1810.1	19.8833
1812.68	19.765
1815.27	19.6404
1817.85	19.3966
1820.43	19.1254
1823.01	18.8436
1825.59	18.5361
1828.17	18.246
1830.74	18.0051
1833.32	23.2114
1835.89	23.5375
1838.47	23.6033
1841.04	23.4502
1843.62	23.517
1846.19	21.1127
1848.76	14.6639
1851.33	4.95618
1853.9	-1.06226
1856.46	-5.04309
1859.03	-7.20752
1861.6	-1.91394
1864.16	1.50049
1866.72	7.80994
1869.29	12.0859
1871.85	15.9419
1874.41	18.1835
1876.97	14.0614
1879.53	14.0789
1882.09	9.78796
1884.65	9.16199
1887.2	6.38403
1889.76	6.36108
1892.31	6.61206
1894.87	7.14453
1897.42	7.90796
1899.97	8.87109
1902.52	10.0424
1905.07	11.3622
1907.62	13.0281
1910.17	14.9135
1912.71	16.66
1915.26	17.1512
1917.81	15.6829
1920.35	14.4963
1922.89	13.8513
1925.43	13.5958
1927.98	13.6833
1930.52	14.1376
1933.06	14.9165
1935.59	15.884
1938.13	18.0499
1940.67	20.3779
1943.2	22.4659
1945.74	23.9501
1948.27	24.9421
1950.8	25.4286
1953.34	25.2599
1955.87	24.6326
1958.4	23.3832
1960.93	21.7357
1963.46	19.3038
1965.98	16.5112
1968.51	13.2456
1971.03	10.1284
1973.56	7.70703
1976.08	5.62195
1978.6	4.33887
1981.13	3.38062
1983.65	2.79419
1986.17	2.62085
1988.69	2.65869
1991.2	2.72083
1993.72	2.02502
1996.24	1.35413
1998.75	1.97217
2001.27	4.61487
2003.78	8.9292
2006.29	14.6582
2008.8	22.5862
2011.31	27.6105
2013.82	31.2434
2016.33	35.8147
2018.84	35.8533
2021.35	25.5638
2023.85	20.9675
2026.36	15.6581
2028.86	10.9923
2031.36	7.0708
2033.87	4.08862
2036.37	2.17822
2038.87	1.25977
2041.37	1.29443
2043.87	2.17651
2046.37	3.88586
2048.86	6.41748
2051.36	9.66821
2053.85	13.4504
2056.35	17.4703
2058.84	21.3773
2061.33	24.9479
2063.82	28.1525
2066.31	31.0555
2068.8	33.804
2071.29	36.4635
2073.78	38.8235
2076.27	38.8776
2078.75	38.5231
2081.24	38.0258
2083.72	37.356
2086.21	36.4967
2088.69	35.3517
2091.17	33.9948
2093.65	32.4995
2096.13	30.6964
2098.61	28.7555
2101.08	26.8175
2103.56	24.823
2106.04	23.4312
2108.51	22.4177
2110.99	21.619
2113.46	20.8811
2115.93	20.313
2118.4	19.7609
2120.88	19.0724
2123.34	18.5092
2125.81	18.1333
2128.28	18.019
2130.75	18.5992
2133.21	20.0392
2135.68	21.8475
2138.14	23.2692
2140.61	21.8723
2143.07	20.8591
2145.53	20.5084
2147.99	20.577
2150.45	20.9583
2152.91	21.5261
2155.37	22.0554
2157.82	22.4543
2160.28	22.1317
2162.74	21.6703
2165.19	21.351
2167.64	21.7601
2170.1	22.7343
2172.55	23.9552
2175	25.2756
2177.45	26.6968
2179.9	27.673
2182.35	28.3835
2184.79	28.7141
2187.24	27.7765
2189.69	26.9597
2192.13	26.9348
2194.57	27.7549
2197.02	29.5809
2199.46	31.6575
2201.9	33.4829
2204.34	34.9286
2206.78	36.2424
2209.22	37.5383
2211.66	38.9125
2214.09	40.3173
2216.53	42.4592
2218.96	44.7103
2221.4	46.9113
2223.83	48.7693
2226.26	50.1478
2228.69	51.1025
2231.12	51.3967
2233.55	51.3632
2235.98	50.1112
2238.41	48.6129
2240.84	46.9807
2243.26	45.3956
2245.69	43.9375
2248.11	43.1077
2250.54	42.4919
2252.96	41.9762
2255.38	41.5859
2257.8	41.2941
2260.22	41.0433
2262.64	40.9105
2265.06	40.7517
2267.48	40.7152
2269.89	40.5159
2272.31	40.3846
2274.72	40.2769
2277.14	40.2344
2279.55	39.9159
2281.96	40.3058
2284.37	40.7108
2286.78	41.167
2289.19	41.6174
2291.6	42.1012
2294.01	42.624
2296.42	43.0759
2298.82	43.1899
2301.23	43.3647
2303.63	43.5101
2306.04	43.6079
2308.44	43.6477
2310.84	43.6309
2313.24	43.5483
2315.64	43.4225
2318.04	43.2247
2320.44	43.0056
2322.84	42.7119
2325.23	42.4015
2327.63	42.0219
2330.02	41.5999
2332.42	41.1161
2334.81	40.5608
2337.2	39.9514
2339.6	39.2555
2341.99	38.5077
2344.38	37.6801
2346.76	36.7761
2349.15	35.8202
2351.54	34.7271
2353.93	33.6383
2356.31	32.5953
2358.7	32.3741
2361.08	32.6831
2363.46	33.3591
2365.85	34.5873
2368.23	35.9142
2370.61	37.2805
2372.99	38.2303
2375.36	38.5081
2377.74	38.446
2380.12	38.173
2382.5	37.8557
2384.87	37.9904
2387.25	38.1183
2389.62	38.0859
2391.99	37.9001
2394.36	37.449
2396.73	36.0194
2399.1	34.6379
2401.47	33.4861
2403.84	33.3738
2406.21	33.999
2408.58	35.1014
2410.94	37.0045
2413.31	39.4504
2415.67	42.3115
2418.04	44.934
2420.4	47.8917
2422.76	51.1937
2425.12	54.7343
2427.48	58.3552
2429.84	61.6918
2432.2	64.4133
2434.56	66.2548
2436.91	66.9875
2439.27	66.3883
2441.62	63.8534
2443.98	60.5222
2446.33	57.6566
2448.68	56.3625
2451.04	55.6974
2453.39	55.2506
2455.74	54.8065
2458.09	54.4271
2460.44	54.0426
2462.78	53.6262
2465.13	53.2094
2467.47	52.6915
2469.82	52.1809
2472.16	51.519
2474.51	50.8652
2476.85	50.0195
2479.19	49.1222
2481.53	48.1522
2483.87	46.9746
2486.21	45.9354
2488.55	45.1213
2490.89	46.2955
2493.22	48.0032
2495.56	50.0349
2497.9	51.9354
2500.23	53.6666
2502.56	55.3143
2504.89	56.6475
2507.23	57.3573
2509.56	57.369
2511.89	56.6639
2514.22	55.3286
2516.55	53.9052
2518.87	52.4766
2521.2	51.0504
2523.53	49.681
2525.85	48.7656
2528.18	47.9116
2530.5	47.2139
2532.82	46.6443
2535.14	46.0328
2537.46	45.6964
2539.78	45.0513
2542.1	44.2426
2544.42	43.469
2546.74	42.5858
2549.06	41.7849
2551.37	40.9369
2553.69	40.1661
2556	39.4423
2558.32	38.7977
2560.63	38.1926
2562.94	37.6907
2565.25	37.2825
2567.56	37.1213
2569.87	36.9446
2572.18	37.0029
2574.49	37.3925
2576.8	39.2206
2579.1	41.4003
2581.41	43.6737
2583.71	44.5308
2586.02	45.2178
2588.32	45.5995
2590.62	45.9568
2592.93	46.0402
2595.23	46.0577
2597.53	45.9727
2599.83	45.8212
2602.12	45.6893
2604.42	45.5154
2606.72	45.4362
2609.01	45.3367
2611.31	45.421
2613.6	45.3887
2615.9	45.0067
2618.19	44.7439
2620.48	44.4052
2622.77	44.0698
2625.06	43.6152
2627.35	43.1721
2629.64	42.6254
2631.93	42.4785
2634.21	43.1466
2636.5	43.6604
2638.79	44.0116
2641.07	44.2982
2643.35	44.9248
2645.64	45.4576
2647.92	45.7544
2650.2	45.8997
2652.48	45.7432
2654.76	44.8652
2657.04	43.6667
2659.32	42.2086
2661.6	40.4998
2663.87	38.6384
2666.15	36.8282
2668.42	35.0133
2670.7	33.8132
2672.97	32.6659
2675.24	32.1149
2677.52	31.8197
2679.79	31.6154
2682.06	31.0986
2684.33	29.8665
2686.59	28.9855
2688.86	28.9364
2691.13	29.3198
2693.4	30.2549
2695.66	29.486
2697.93	25.486
2700.19	22.0968
2702.45	20.2297
2704.72	19.6862
2706.98	20.0917
2709.24	21.4012
2711.5	23.0598
2713.76	24.9672
2716.02	27.337
2718.27	32.8706
2720.53	33.6093
2722.79	33.7544
2725.04	32.9891
2727.3	31.3401
2729.55	28.5759
2731.8	19.7513
2734.05	16.147
2736.31	11.8925
2738.56	5.74084
2740.81	1.13708
2743.05	-1.20605
2745.3	-1.02588
2747.55	7.38953
2749.8	12.1205
2752.04	13.2657
2754.29	13.754
2756.53	14.475
2758.78	15.3783
2761.02	16.6121
2763.26	18.0099
2765.5	19.5389
2767.74	21.0634
2769.98	20.7043
2772.22	23.5464
2774.46	26.6683
2776.7	29.9197
2778.93	32.6193
2781.17	35.4805
2783.4	39.272
2785.64	43.9683
2787.87	54.0542
2790.1	59.517
2792.34	62.1656
2794.57	62.3464
2796.8	60.0586
2799.03	55.5305
2801.26	48.6254
2803.48	34.6708
2805.71	28.4437
2807.94	19.9023
2810.16	15.3201
2812.39	16.9392
2814.61	21.1295
2816.84	25.183
2819.06	28.0884
2821.28	30.8456
2823.5	33.7915
2825.72	31.3501
2827.94	23.2156
2830.16	17.8099
2832.38	14.6758
2834.59	13.9165
2836.81	16.3777
2839.03	19.588
2841.24	22.451
2843.46	24.9008
2845.67	26.9038
2847.88	28.5253
2850.09	29.7749
2852.31	30.5529
2854.52	31.0905
2856.73	29.0916
2858.93	26.203
2861.14	22.7828
2863.35	20.3776
2865.56	18.6804
2867.76	17.5142
2869.97	17.074
2872.17	17.0017
2874.37	17.2982
2876.58	17.9092
2878.78	18.7123
2880.98	19.6852
2883.18	20.7845
2885.38	21.9763
2887.58	23.4187
2889.78	25.1288
2891.98	26.7181
2894.17	28.1177
2896.37	28.1223
2898.56	27.5892
2900.76	26.3711
2902.95	24.2864
2905.14	23.6847
2907.34	23.6172
2909.53	24.0369
2911.72	24.3569
2913.91	24.5564
2916.1	24.5873
2918.29	24.5228
2920.47	24.428
2922.66	24.2646
2924.85	24.0488
2927.03	23.7804
2929.22	23.45
2931.4	23.0594
2933.58	22.6074
2935.77	22.092
2937.95	21.5028
2940.13	20.932
2942.31	20.1421
2944.49	19.0737
2946.67	17.8694
2948.85	16.9878
2951.02	17.8684
2953.2	19.8372
2955.38	21.212
2957.55	22.1459
2959.72	22.7386
2961.9	23.2751
2964.07	23.8297
2966.24	24.6416
2968.41	37.8893
2970.58	34.4977
2972.75	28.4391
2974.92	20.2297
2977.09	15.5548
2979.26	16.0548
2981.43	15.129
2983.59	12.8086
2985.76	11.2761
2987.92	11.2894
2990.09	13.1287
2992.25	23.1451
2994.41	10.2935
2996.57	8.94067
2998.73	20.4899
3000.89	29.6696
3003.05	34.4659
3005.21	35.3046
3007.37	34.1846
3009.53	31.4012
3011.68	27.5977
3013.84	23.2974
3015.99	19.3751
3018.15	16.9618
3020.3	15.2558
3022.46	14.2035
3024.61	13.6753
3026.76	13.634
3028.91	14.0604
3031.06	14.5009
3033.21	14.7851
3035.36	14.7502
3037.51	14.1706
3039.65	13.0235
3041.8	11.5673
3043.94	9.90039
3046.09	8.35529
3048.23	7.40442
3050.38	6.92682
3052.52	7.12964
3054.66	7.98785
3056.8	9.32751
3058.94	11.1127
3061.08	13.1513
3063.22	15.2256
3065.36	16.9269
3067.5	18.3594
3069.63	19.3186
3071.77	19.7337
3073.9	19.2694
3076.04	17.8976
3078.17	16.5182
3080.31	15.4794
3082.44	15.0797
3084.57	15.2732
3086.7	15.8079
3088.83	16.6483
3090.96	17.6156
3093.09	18.911
3095.22	20.1532
3097.35	21.3021
3099.47	22.2393
3101.6	22.904
3103.72	23.1624
3105.85	23.2513
3107.97	22.87
3110.09	22.1572
3112.22	21.2271
3114.34	20.0173
3116.46	18.6992
3118.58	17.2446
3120.7	15.6876
3122.82	14.1137
3124.94	12.738
3127.05	11.3598
3129.17	10.0955
3131.29	8.78851
3133.4	7.66516
3135.52	6.89172
3137.63	6.65546
3139.74	7.62256
3141.85	9.32599
3143.97	11.9391
3146.08	15.0901
3148.19	18.57
3150.3	21.3006
3152.41	22.9901
3154.51	23.5812
3156.62	23.368
3158.73	22.4981
3160.83	21.0281
3162.94	19.3823
3165.04	17.3696
3167.15	15.4863
3169.25	13.8285
3171.35	12.4091
3173.45	11.4175
3175.56	10.652
3177.66	10.4108
3179.76	10.5223
3181.85	11.0087
3183.95	11.7799
3186.05	12.9709
3188.15	14.4296
3190.24	15.8919
3192.34	17.2978
3194.43	18.0064
3196.53	18.4949
3198.62	18.5638
3200.71	18.2497
3202.81	17.4893
3204.9	16.4976
3206.99	15.1661
3209.08	13.8071
3211.17	12.43
3213.25	11.4714
3215.34	10.6569
3217.43	10.1633
3219.51	9.92804
3221.6	9.93188
3223.69	10.0419
3225.77	10.5536
3227.85	11.1904
3229.94	11.908
3232.02	12.3759
3234.1	11.8798
3236.18	11.7065
3238.26	11.6635
3240.34	11.9275
3242.42	12.1155
3244.49	12.2383
3246.57	12.2404
3248.65	12.4466
3250.72	12.8277
3252.8	13.8693
3254.87	15.5006
3256.95	18.1649
3259.02	20.3956
3261.09	21.4662
3263.16	21.6732
3265.24	20.863
3267.31	19.1069
3269.38	16.2634
3271.44	12.4188
3273.51	7.06665
3275.58	1.83624
3277.65	-0.339294
3279.71	-1.91431
3281.78	-2.18463
3283.84	-0.893555
3285.91	1.6897
3287.97	4.62268
3290.03	9.15155
3292.09	14.3293
3294.16	18.7008
3296.22	22.0146
3298.28	24.0609
3300.34	24.8033
3302.39	24.2109
3304.45	22.1366
3306.51	17.9166
3308.57	12.6249
3310.62	7.7608
3312.68	4.27533
3314.73	1.51837
3316.78	-0.500244
3318.84	-1.86438
3320.89	-2.41144
3322.94	-2.19141
3324.99	-1.15521
3327.04	0.445251
3329.09	2.59375
3331.14	5.28577
3333.19	7.77496
3335.24	10.0081
3337.28	11.4307
3339.33	11.8932
3341.38	11.9164
3343.42	11.7264
3345.47	11.9167
3347.51	12.0983
3349.55	12.3894
3351.59	12.874
3353.64	13.7258
3355.68	18.215
3357.72	19.913
3359.76	18.1
3361.8	14.5347
3363.83	11.2911
3365.87	8.43445
3367.91	6.15845
3369.94	4.38483
3371.98	3.21796
3374.01	2.73883
3376.05	2.8924
3378.08	3.78949
3380.11	5.52789
3382.15	8.27716
3384.18	11.0178
3386.21	12.8593
3388.24	13.9516
3390.27	14.27
3392.3	13.9085
3394.32	12.7104
3396.35	10.5736
3398.38	7.7807
3400.4	4.94775
3402.43	2.97327
3404.45	1.45416
3406.48	0.464233
3408.5	0.200562
3410.52	0.413452
3412.55	1.25592
3414.57	2.77002
3416.59	4.95245
3418.61	8.79639
3420.63	12.9265
3422.65	16.1326
3424.66	18.4828
3426.68	19.8787
3428.7	20.4558
3430.71	20.1796
3432.73	19.0469
3434.74	16.3924
3436.76	13.1356
3438.77	10.3425
3440.79	8.92706
3442.8	8.14197
3444.81	7.90607
3446.82	8.14331
3448.83	8.87628
3450.84	10.0794
3452.85	11.9266
3454.86	14.3007
3456.86	16.6971
3458.87	18.2271
3460.88	19.0328
3462.88	19.3484
3464.89	19.2027
3466.89	18.4696
3468.89	17.8453
3470.9	20.3184
3472.9	24.6874
3474.9	26.4178
3476.9	27.5891
3478.9	29.5009
3480.9	30.516
3482.9	30.7405
3484.9	30.6754
3486.89	28.8371
3488.89	18.7996
3490.89	14.8574
3492.88	11.141
3494.88	8.97729
3496.87	9.12085
3498.87	9.9165
3500.86	9.49536
3502.85	9.97888
3504.84	10.8577
3506.83	11.7742
3508.82	12.6774
3510.81	13.4864
3512.8	14.1866
3514.79	14.7521
3516.78	15.1918
3518.77	15.4305
3520.75	15.5714
3522.74	15.5012
3524.72	15.334
3526.71	14.9529
3528.69	14.4744
3530.68	13.8096
3532.66	13.0031
3534.64	12.0525
3536.62	10.9018
3538.6	9.6189
3540.58	8.10156
3542.56	6.38708
3544.54	4.49103
3546.52	2.6333
3548.49	2.25214
3550.47	2.99805
3552.45	3.90588
3554.42	5.34845
3556.4	7.04242
3558.37	8.91498
3560.34	10.9124
3562.32	12.9158
3564.29	15.04
3566.26	17.0687
3568.23	16.8769
3570.2	16.4324
3572.17	16.0731
3574.14	15.7252
3576.11	15.477
3578.08	15.2267
3580.04	15.139
3582.01	14.8306
3583.98	18.8596
3585.94	24.6727
3587.91	28.0255
3589.87	33.7442
3591.83	42.2202
3593.8	43.121
3595.76	67.0266
3597.72	83.6236
3599.68	124.046
3601.64	155.626
3603.6	184.954
3605.56	246.431
3607.52	426.918
3609.47	660.973
3611.43	634.895
3613.39	450.453
3615.34	195.895
3617.3	108.276
3619.25	65.0629
3621.21	43.7117
3623.16	32.6305
3625.11	28.6799
3627.06	25.4714
3629.01	20.9557
3630.96	20.0108
3632.91	18.188
3634.86	19.0644
3636.81	17.4195
3638.76	16.8072
3640.71	18.7977
3642.65	18.3018
3644.6	17.3184
3646.55	16.3337
3648.49	15.2657
3650.44	14.562
3652.38	14.0026
3654.32	13.6639
3656.26	13.3991
3658.21	13.101
3660.15	12.4495
3662.09	11.655
3664.03	11.3593
3665.97	12.0805
3667.9	13.6248
3669.84	15.5413
3671.78	17.4689
3673.72	19.2401
3675.65	20.7654
3677.59	22.0598
3679.52	23.1448
3681.46	24.0305
3683.39	20.2704
3685.32	19.588
3687.26	20.463
3689.19	24.0955
3691.12	26.0397
3693.05	25.8496
3694.98	25.2735
3696.91	24.2022
3698.84	22.0605
3700.76	19.7379
3702.69	17.1913
3704.62	14.517
3706.54	12.0542
3708.47	9.96716
3710.39	8.37677
3712.32	7.89886
3714.24	7.57214
3716.16	5.03546
3718.09	2.5697
3720.01	0.464783
3721.93	-1.34955
3723.85	-1.46515
3725.77	-0.0289307
3727.69	1.72937
3729.61	4.55896
3731.53	7.07245
3733.44	10.4057
3735.36	13.4326
3737.28	15.9313
3739.19	17.1743
3741.11	16.9583
3743.02	17.2221
3744.94	17.1016
3746.85	16.1293
3748.76	16.2264
3750.67	15.4797
3752.58	14.2962
3754.49	12.9056
3756.4	12.3409
3758.31	11.6769
3760.22	9.97644
3762.13	9.8089
3764.04	11.9359
3765.95	12.6602
3767.85	13.4203
3769.76	11.439
3771.66	9.58331
3773.57	8.35175
3775.47	7.64636
3777.37	7.54803
3779.28	8.26276
3781.18	9.47064
3783.08	10.7557
3784.98	12.0167
3786.88	13.1254
3788.78	14.1301
3790.68	15.071
3792.58	15.8912
3794.48	16.64
3796.37	17.1456
3798.27	17.4612
3800.17	17.6179
3802.06	17.4127
3803.96	17.0331
3805.85	16.6119
3807.74	16.0955
3809.64	15.76
3811.53	16.4338
3813.42	16.6143
3815.31	15.7603
3817.2	13.5557
3819.09	10.4698
3820.98	6.83887
3822.87	3.64117
3824.76	1.24884
3826.65	-0.0524292
3828.53	-0.727295
3830.42	-0.940979
3832.31	-0.886536
3834.19	-0.714417
3836.08	-0.23938
3837.96	0.667297
3839.84	2.26813
3841.73	4.66431
3843.61	6.96741
3845.49	8.53754
3847.37	9.66962
3849.25	10.6028
3851.13	11.0692
3853.01	11.2072
3854.89	10.8647
3856.77	9.77618
3858.64	7.96814
3860.52	8.03937
3862.4	8.83752
3864.27	9.95111
3866.15	11.255
3868.02	11.8207
3869.9	9.55664
3871.77	6.79193
3873.64	4.85443
3875.51	5.01892
3877.38	7.05725
3879.25	9.38904
3881.13	13.1586
3882.99	16.9263
3884.86	18.973
3886.73	17.2478
3888.6	15.6841
3890.47	14.1907
3892.33	12.9247
3894.2	11.7803
3896.07	10.738
3897.93	9.789
3899.79	8.96912
3901.66	8.24292
3903.52	7.63715
3905.38	7.19006
3907.25	6.85065
3909.11	6.75781
3910.97	6.77057
3912.83	7.04626
3914.69	7.11737
3916.55	5.37042
3918.4	3.41052
3920.26	1.60315
3922.12	0.213318
3923.98	-0.616272
3925.83	-0.858459
3927.69	-0.303101
3929.54	1.10712
3931.4	3.61377
3933.25	7.18848
3935.1	11.0565
3936.95	14.5148
3938.81	17.5383
3940.66	20.1103
3942.51	22.3366
3944.36	24.0873
3946.21	25.562
3948.06	26.567
3949.91	26.7145
3951.75	26.6025
3953.6	26.3826
3955.45	26.0613
3957.29	25.744
3959.14	25.7534
3960.98	25.6873
3962.83	25.7072
3964.67	25.7986
3966.52	25.9515
3968.36	26.2
3970.2	26.5211
3972.04	26.9505
3973.88	27.4571
3975.72	28.0801
3977.56	28.7839
3979.4	29.5919
3981.24	30.5205
3983.08	31.5828
3984.91	32.7838
3986.75	33.7512
3988.59	31.6462
3990.42	30.5087
3992.26	29.4883
3994.09	28.7672
3995.93	28.1968
3997.76	27.9427
3999.59	28.011
