#Acq. time (s)=	15
#Accumulations=	2
#Range (cm-¹)=	100...4000
#Windows=	1
#Auto scanning=	Off
#Autofocus=	Off
#Macrospot=	Off
#AutoExposure=	Off
#Spike filter=	Single accum. (Size=4)
#Delay time (s)=	0
#Binning=	1
#Readout mode=	Signal
#DeNoise=	Standard
#ICS correction=	On
#Dark correction=	Off
#Inst. Process=	On
#Detector Gain=	Best Dynamic
#Detector ADC=	50 kHz HS
#Detector temperature (°C)=	-60.09
#Instrument=	LabRAM HR Evol
#Detector=	SIN-EM FIVIS
#Objective=	x50_VIS_LWD
#Grating=	150 (500nm)
#ND Filter=	100%
#Laser=	633nm_Edge
#Hole=	100.021
#Temperature=	0
#Range=	Visible
#StageXY=	75x50mm Scan+
#StageZ=	Z motor
#X (µm)=	0
#Y (µm)=	0
#Z (µm)=	76.8
#Project=	20_05_11
#Sample=	BU20b
#Site=	
#Title=	BU20b-area3-blue-rim-on-Scz_bottom_150 (500nm)_633nm_Edge_100%_x50_VIS_LWD_H100um_15sX2
#Remark=	
#Date=	11.05.2020 19:20
#Acquired=	11.05.2020 19:20:54
#Data Range:Extract=	01.07.2021 19:23:37
#Base:Fit=	01.07.2021 19:24:15
#Base:Fit=	01.07.2021 19:24:39
#Base:Fit=	01.07.2021 19:24:47
#Base:Sub=	01.07.2021 19:24:50
100.862	296.326
104.122	300.735
107.378	473.724
110.635	469.428
113.889	344.387
117.143	209.422
120.394	176.349
123.646	106.858
126.894	56.8746
130.143	20.4755
133.388	1.0321
136.634	-0.0032959
139.878	26.5129
143.121	18.812
146.361	63.9766
149.602	123.8
152.84	137.881
156.077	109.211
159.313	88.2463
162.546	79.6171
165.78	100.99
169.011	141.713
172.242	221.582
175.471	324.826
178.699	422.893
181.925	279.68
185.149	154.134
188.374	73.3082
191.596	59.5918
194.818	59.163
198.037	63.9052
201.254	75.8781
204.472	92.8754
207.687	107.25
210.903	125.956
214.115	146.028
217.326	161.623
220.537	177.726
223.746	191.71
226.953	184.888
230.16	169.543
233.365	165.637
236.568	155.684
239.771	144.097
242.972	135.369
246.171	138.63
249.371	142.75
252.567	140.469
255.762	192.827
258.958	235.874
262.151	141.481
265.342	80.7592
268.533	74.576
271.722	98.1127
274.91	146.781
278.096	213.574
281.282	270.946
284.466	298.957
287.648	258.55
290.829	173.011
294.01	135.562
297.188	133.672
300.365	141.875
303.541	107.045
306.716	83.4856
309.89	91.807
313.061	120.733
316.232	217.859
319.401	290.895
322.57	261.134
325.737	199.228
328.902	148.081
332.066	106.135
335.229	86.3974
338.392	79.1969
341.552	73.0133
344.711	70.0211
347.868	73.5864
351.024	87.1945
354.179	111.388
357.335	151.414
360.487	240.354
363.638	296.896
366.788	241.082
369.936	202.781
373.084	138.813
376.23	89.6671
379.376	70.2043
382.519	53.431
385.661	35.111
388.802	19.1503
391.942	12.5737
395.08	13.3665
398.217	24.725
401.353	46.855
404.487	81.1387
407.62	117.124
410.752	190.834
413.884	243.925
417.013	276.918
420.141	251.511
423.268	214.944
426.394	194.271
429.518	165.468
432.641	152.594
435.763	185.248
438.883	240.184
442.002	318.494
445.12	381.71
448.237	322.813
451.352	250.458
454.466	211.001
457.579	210.873
460.691	242.48
463.801	282.51
466.91	321.956
470.018	371.568
473.125	348.101
476.23	309.712
479.334	271.841
482.437	272.413
485.538	296.525
488.638	329.882
491.737	373.631
494.834	415.391
497.93	460.943
501.026	516.066
504.12	571.522
507.212	626.584
510.304	673.869
513.394	707.862
516.483	727.449
519.571	733.329
522.657	715.234
525.743	735.151
528.825	776.628
531.908	837.325
534.989	915.069
538.07	946.209
541.149	952.648
544.227	883.971
547.303	817.842
550.377	745.632
553.451	718.638
556.524	778.421
559.595	911.885
562.666	1073.2
565.735	1185.03
568.801	1192.15
571.868	1119.7
574.933	986.52
577.998	781.65
581.061	650.871
584.121	562.709
587.181	523.279
590.241	530.13
593.299	592.057
596.354	713.473
599.41	885.978
602.464	1120.54
605.517	1185.34
608.568	1091.21
611.618	864.069
614.668	651.307
617.716	460.519
620.761	380.397
623.807	334.007
626.852	304.946
629.895	286.859
632.936	292.672
635.977	286.845
639.016	297.64
642.053	276.493
645.091	250.889
648.127	222.346
651.16	209.209
654.193	201.995
657.226	202.288
660.256	214.815
663.286	217.856
666.314	203.632
669.34	179.022
672.367	155.125
675.392	125.75
678.414	101.11
681.437	78.8138
684.457	57.0739
687.477	41.062
690.496	29.6788
693.513	20.3259
696.529	12.6852
699.543	7.12476
702.558	3.24841
705.571	1.07843
708.581	0.0424194
711.592	-0.263
714.6	-0.369629
717.608	0.0616455
720.614	0.674622
723.62	1.55084
726.624	2.80566
729.626	3.4115
732.628	0.497131
735.628	1.04535
738.628	2.40649
741.625	4.39026
744.623	6.85992
747.618	9.67944
750.613	12.9236
753.605	16.5209
756.598	20.6208
759.588	25.1631
762.578	30.0106
765.566	34.7607
768.554	39.4299
771.539	43.126
774.525	46.569
777.508	49.442
780.49	52.1956
783.472	54.3463
786.451	58.2882
789.431	62.2496
792.408	66.4005
795.385	71.5135
798.36	78.3996
801.333	80.6785
804.307	81.2634
807.278	79.7049
810.25	76.7365
813.219	67.9818
816.186	60.5229
819.154	52.5039
822.119	43.6771
825.085	34.8306
828.048	28.6531
831.01	22.7832
833.972	17.7581
836.931	13.1942
839.889	9.33044
842.848	6.11169
845.804	4.10406
848.759	2.77789
851.714	2.16211
854.666	1.74817
857.617	1.7757
860.569	1.492
863.518	1.00555
866.465	0.586304
869.413	0.460632
872.359	0.409058
875.303	0.676208
878.246	0.868896
881.19	1.09204
884.13	1.13525
887.07	0.812073
890.009	0.385376
892.947	-0.183044
895.883	-0.712463
898.818	-0.934692
901.752	-0.611572
904.686	-0.165588
907.618	0.803406
910.548	2.26611
913.478	4.07568
916.406	6.58875
919.334	10.1371
922.26	15.2883
925.184	21.9952
928.108	30.545
931.03	40.8083
933.953	52.8465
936.873	67.0824
939.792	85.3397
942.709	101.814
945.626	121.98
948.542	146.803
951.457	175.055
954.37	205.554
957.282	236.487
960.193	268.905
963.103	307.266
966.012	355.687
968.919	423.34
971.825	539.697
974.731	675.385
977.636	769.352
980.539	843.568
983.441	917.456
986.341	1022.35
989.241	1145.65
992.139	1273.83
995.036	1323.36
997.932	1186.11
1000.83	1001.79
1003.72	843.931
1006.61	769.08
1009.51	783.584
1012.4	872.787
1015.29	1008.98
1018.17	1297.08
1021.06	1556.08
1023.95	1673.6
1026.83	1624.68
1029.71	1451.94
1032.6	1289.53
1035.48	1129
1038.36	1018.36
1041.24	952.318
1044.12	894.838
1046.99	845.075
1049.87	779.757
1052.74	708.169
1055.62	635.605
1058.49	612.847
1061.36	599.305
1064.23	589.943
1067.1	585.637
1069.97	580.383
1072.84	571.842
1075.7	555.932
1078.56	536.817
1081.43	514.383
1084.29	490.344
1087.15	460.149
1090.01	426.371
1092.87	386.338
1095.73	347.342
1098.58	310.693
1101.44	278.153
1104.29	262.977
1107.15	268.208
1110	289.474
1112.85	334.315
1115.7	408.346
1118.55	493.378
1121.4	582.338
1124.24	549.464
1127.09	475.608
1129.94	399.078
1132.78	329.845
1135.62	285.138
1138.46	256.648
1141.3	247.152
1144.14	248.534
1146.98	285.363
1149.81	308.077
1152.65	303.015
1155.49	271.41
1158.32	225.983
1161.15	189.138
1163.98	155.688
1166.81	137.139
1169.64	120.539
1172.47	108.33
1175.3	96.2012
1178.12	85.2928
1180.95	76.6601
1183.77	68.9418
1186.59	62.569
1189.41	57.2031
1192.23	52.5793
1195.05	48.5576
1197.87	45.0764
1200.69	42.3934
1203.5	40.0829
1206.32	38.1455
1209.13	36.2188
1211.94	34.2973
1214.75	32.4315
1217.56	30.882
1220.37	29.2704
1223.18	28.025
1225.99	26.7983
1228.79	25.8858
1231.6	25.0561
1234.4	24.3517
1237.21	23.6563
1240.01	22.7027
1242.81	21.7933
1245.61	20.8675
1248.41	19.9261
1251.2	18.7072
1254	17.4929
1256.79	16.2992
1259.59	15.4584
1262.38	14.7168
1265.17	14.2885
1267.96	14.0475
1270.75	14.1041
1273.54	14.3651
1276.33	14.7221
1279.12	14.9512
1281.9	15.256
1284.69	15.4815
1287.47	15.6826
1290.25	15.8943
1293.03	16.0093
1295.81	16.363
1298.59	16.8234
1301.37	17.2513
1304.15	17.6643
1306.92	17.9555
1309.7	18.0285
1312.47	18.0942
1315.24	17.9863
1318.01	17.7646
1320.78	17.7227
1323.55	17.7271
1326.32	17.8312
1329.09	18.1703
1331.85	18.5167
1334.62	18.9304
1337.38	19.0836
1340.15	19.0264
1342.91	18.1766
1345.67	18.6416
1348.43	19.1753
1351.19	19.5984
1353.95	20.0726
1356.7	20.0754
1359.46	20.0399
1362.21	20.1532
1364.97	20.2455
1367.72	19.8319
1370.47	19.2227
1373.22	18.5061
1375.97	17.5958
1378.72	16.5105
1381.46	15.3417
1384.21	14.2621
1386.96	13.2299
1389.7	12.7038
1392.44	12.6981
1395.18	13.0707
1397.92	13.4486
1400.66	13.9385
1403.4	14.2769
1406.14	14.5412
1408.88	14.731
1411.61	14.7322
1414.35	14.6322
1417.08	14.4431
1419.81	14.0546
1422.54	13.4994
1425.27	12.9158
1428	11.967
1430.73	11.0818
1433.46	10.1457
1436.18	9.54959
1438.91	9.31793
1441.63	9.21469
1444.36	9.30496
1447.08	9.52185
1449.8	9.55206
1452.52	9.61005
1455.24	9.68109
1457.96	9.82629
1460.67	9.97418
1463.39	10.3057
1466.1	10.6294
1468.82	10.7907
1471.53	10.8103
1474.24	10.7682
1476.95	10.3744
1479.66	10.1356
1482.37	10.0092
1485.08	9.99756
1487.78	10.1057
1490.49	10.4576
1493.19	11.0904
1495.9	12.1162
1498.6	12.2688
1501.3	12.6171
1504	12.9972
1506.7	13.2122
1509.4	13.2223
1512.09	12.967
1514.79	12.436
1517.49	11.5282
1520.18	10.5926
1522.87	9.71143
1525.56	9.0564
1528.26	8.37021
1530.95	8.02927
1533.63	7.96143
1536.32	8.0177
1539.01	8.25888
1541.7	8.56494
1544.38	9.21243
1547.06	8.93201
1549.75	9.33963
1552.43	12.2933
1555.11	14.2439
1557.79	15.3228
1560.47	15.5293
1563.15	14.5849
1565.82	12.8718
1568.5	10.6611
1571.17	8.35138
1573.85	6.76895
1576.52	5.87476
1579.19	5.86697
1581.86	6.19778
1584.53	6.58725
1587.2	7.08456
1589.87	7.67331
1592.54	8.29541
1595.2	9.21838
1597.86	10.1173
1600.53	10.9047
1603.19	11.5116
1605.85	11.9803
1608.51	12.3004
1611.17	12.4519
1613.83	12.3581
1616.49	12.1924
1619.15	12.0271
1621.8	11.8072
1624.46	11.824
1627.11	11.9838
1629.76	12.4739
1632.41	12.8697
1635.06	13.7686
1637.71	13.5774
1640.36	12.9587
1643.01	11.5755
1645.66	10.5249
1648.3	9.98691
1650.95	9.51044
1653.59	9.04877
1656.23	9.03714
1658.87	9.06219
1661.52	9.1745
1664.16	9.27487
1666.79	9.39496
1669.43	9.4848
1672.07	9.69797
1674.7	9.92261
1677.34	10.1877
1679.97	10.4262
1682.6	10.5247
1685.24	10.6416
1687.87	10.5798
1690.5	10.3878
1693.13	10.0039
1695.75	9.59583
1698.38	9.13181
1701.01	8.64032
1703.63	8.13733
1706.25	7.82108
1708.88	7.5625
1711.5	7.13403
1714.12	6.60938
1716.74	5.98489
1719.36	4.64035
1721.98	3.95511
1724.59	3.65594
1727.21	3.95398
1729.82	4.6185
1732.44	5.36032
1735.05	6.22021
1737.66	6.9509
1740.27	7.59683
1742.89	8.00281
1745.49	8.3331
1748.1	8.38416
1750.71	6.8399
1753.31	5.28134
1755.92	4.41727
1758.52	3.35812
1761.13	2.03564
1763.73	1.08008
1766.33	0.432861
1768.93	-0.0115967
1771.53	-0.111481
1774.13	-0.248779
1776.73	-0.376038
1779.32	0.0617065
1781.92	0.937164
1784.51	1.82681
1787.11	2.76877
1789.7	3.61151
1792.29	4.50116
1794.88	5.29422
1797.47	6.04535
1800.06	6.23959
1802.65	6.08777
1805.23	5.81226
1807.82	5.50613
1810.41	5.53574
1812.99	5.63647
1815.57	5.9375
1818.15	6.27356
1820.74	6.75613
1823.32	6.59683
1825.9	6.36328
1828.47	5.9584
1831.05	4.8063
1833.63	3.716
1836.2	2.84421
1838.78	2.22137
1841.35	1.77551
1843.92	1.36383
1846.49	1.07602
1849.06	0.822937
1851.63	0.64212
1854.2	0.489227
1856.77	0.347443
1859.34	0.276398
1861.9	0.160614
1864.47	0.170349
1867.03	0.225891
1869.59	0.460419
1872.16	0.418243
1874.72	0.0768738
1877.28	-0.175385
1879.84	-0.36676
1882.39	-0.409882
1884.95	-0.456848
1887.51	-0.195068
1890.06	0.147217
1892.62	0.573578
1895.17	1.07648
1897.72	1.67181
1900.27	2.29581
1902.82	2.84641
1905.37	3.40152
1907.92	3.79681
1910.47	4.2944
1913.02	4.90479
1915.56	5.46362
1918.11	5.84253
1920.65	5.73605
1923.2	5.34918
1925.74	4.89209
1928.28	4.27866
1930.82	3.68564
1933.36	3.01633
1935.9	2.62408
1938.43	2.3924
1940.97	2.29068
1943.51	2.55579
1946.04	3.01215
1948.57	3.68082
1951.11	4.36301
1953.64	5.07004
1956.17	5.65213
1958.7	6.26807
1961.23	6.41937
1963.76	6.58844
1966.28	6.5899
1968.81	5.66107
1971.33	4.39185
1973.86	3.13745
1976.38	1.94952
1978.91	1.13422
1981.43	0.434845
1983.95	-0.0357971
1986.47	-0.309906
1988.99	-0.388885
1991.5	-0.162384
1994.02	0.31842
1996.54	0.947083
1999.05	1.6051
2001.57	2.16217
2004.08	2.0759
2006.59	1.68198
2009.1	1.17056
2011.61	1.03867
2014.12	1.11197
2016.63	1.59702
2019.14	2.47787
2021.65	3.42984
2024.15	4.05121
2026.66	4.46902
2029.16	4.7764
2031.66	4.90179
2034.17	4.55038
2036.67	4.05682
2039.17	3.47488
2041.67	2.88397
2044.17	2.33438
2046.66	1.85214
2049.16	1.4733
2051.66	1.21167
2054.15	1.64111
2056.65	2.30701
2059.14	2.98438
2061.63	3.84198
2064.12	4.66687
2066.61	5.46066
2069.1	6.27042
2071.59	7.0748
2074.08	7.78891
2076.56	8.22955
2079.05	8.43536
2081.53	8.28592
2084.02	7.96722
2086.5	7.51669
2088.98	7.13303
2091.46	7.20859
2093.94	7.20602
2096.42	7.21722
2098.9	7.33017
2101.38	7.50168
2103.86	7.7045
2106.33	8.26035
2108.81	8.91119
2111.28	9.64667
2113.76	10.3982
2116.23	11.0273
2118.7	11.5968
2121.17	12.1021
2123.64	12.4389
2126.11	12.7241
2128.57	12.7273
2131.04	12.4134
2133.51	11.803
2135.97	11.0446
2138.44	10.1623
2140.9	9.79428
2143.36	9.6185
2145.82	9.7056
2148.28	9.8548
2150.74	9.97781
2153.2	10.1508
2155.66	10.2217
2158.12	10.4113
2160.57	10.4137
2163.03	10.3705
2165.48	10.2574
2167.94	10.2026
2170.39	8.92551
2172.84	6.8269
2175.29	5.01434
2177.74	3.33032
2180.19	1.78677
2182.64	0.588318
2185.09	-1.22964
2187.53	-0.968781
2189.98	-0.262726
2192.42	1.18958
2194.86	3.26883
2197.31	6.49225
2199.75	8.55032
2202.19	10.2789
2204.63	11.4485
2207.07	11.8626
2209.51	11.7537
2211.95	11.3114
2214.38	11.5159
2216.82	11.5146
2219.25	11.4538
2221.69	10.8498
2224.12	10.1638
2226.55	9.54846
2228.98	9.00119
2231.41	8.55756
2233.84	8.23679
2236.27	8.05396
2238.7	8.0162
2241.13	8.12854
2243.55	8.35553
2245.98	8.72839
2248.4	9.4848
2250.83	10.5455
2253.25	11.6118
2255.67	12.6309
2258.09	13.174
2260.51	13.485
2262.93	13.6533
2265.35	13.6642
2267.76	13.5534
2270.18	12.9477
2272.6	12.4286
2275.01	11.8434
2277.43	11.128
2279.84	10.2733
2282.25	9.27011
2284.66	8.4281
2287.07	7.70129
2289.48	7.11319
2291.89	6.88904
2294.3	6.62506
2296.7	6.63538
2299.11	6.80209
2301.52	7.07849
2303.92	7.50745
2306.32	7.97034
2308.73	8.46698
2311.13	8.68256
2313.53	11.1111
2315.93	12.1698
2318.33	12.9907
2320.73	13.4671
2323.12	13.6662
2325.52	13.014
2327.92	12.2141
2330.31	11.1372
2332.7	10.0838
2335.1	9.07736
2337.49	8.5054
2339.88	8.58685
2342.27	8.4978
2344.66	8.49866
2347.05	8.34473
2349.44	8.13745
2351.83	8.25577
2354.21	8.54391
2356.6	8.85291
2358.98	9.20575
2361.36	9.52759
2363.75	9.89209
2366.13	10.1669
2368.51	10.3904
2370.89	10.6617
2373.27	10.7081
2375.65	10.6252
2378.03	10.5528
2380.4	10.3879
2382.78	10.3151
2385.15	10.6989
2387.53	11.0796
2389.9	10.8668
2392.28	10.0331
2394.65	8.80902
2397.02	7.4642
2399.39	6.09421
2401.76	5.15891
2404.12	4.42596
2406.49	3.97525
2408.86	3.84961
2411.23	4.02063
2413.59	4.24258
2415.95	4.76819
2418.32	5.25986
2420.68	5.95386
2423.04	6.79297
2425.4	7.61935
2427.76	8.31049
2430.12	8.73517
2432.48	9.00974
2434.84	9.07703
2437.19	9.13516
2439.55	8.99756
2441.9	8.91306
2444.26	9.05188
2446.61	9.26758
2448.96	9.56473
2451.32	9.8634
2453.67	10.5846
2456.02	10.3576
2458.37	9.9494
2460.71	9.36652
2463.06	8.51392
2465.41	7.65811
2467.75	6.96457
2470.1	6.36484
2472.44	6.34406
2474.79	6.88901
2477.13	7.71283
2479.47	8.6319
2481.81	9.74619
2484.15	11.1927
2486.49	13.0111
2488.83	15.6003
2491.17	16.8668
2493.5	17.3148
2495.84	17.1084
2498.17	16.4097
2500.51	15.3159
2502.84	13.6807
2505.17	11.7922
2507.5	10.2087
2509.84	8.02878
2512.17	7.37006
2514.5	7.52234
2516.82	7.50027
2519.15	7.37347
2521.48	7.34125
2523.8	7.36301
2526.13	7.35336
2528.45	7.63776
2530.78	7.91602
2533.1	8.21228
2535.42	8.5145
2537.74	8.80951
2540.06	9.04858
2542.38	9.17719
2544.7	9.00958
2547.02	8.90836
2549.33	8.80103
2551.65	8.74155
2553.97	8.69849
2556.28	8.7619
2558.59	8.86972
2560.91	9.03839
2563.22	9.25781
2565.53	9.48196
2567.84	9.9277
2570.15	10.3189
2572.46	11.0169
2574.77	11.775
2577.07	12.5442
2579.38	13.2206
2581.68	13.3978
2583.99	13.5842
2586.29	13.2476
2588.6	12.8692
2590.9	12.3888
2593.2	11.8058
2595.5	11.1774
2597.8	10.7151
2600.1	10.2544
2602.4	9.92233
2604.69	9.60199
2606.99	9.15411
2609.29	8.73175
2611.58	8.24597
2613.88	7.93579
2616.17	7.54562
2618.46	7.2424
2620.75	6.89063
2623.04	6.93286
2625.33	6.8063
2627.62	6.64856
2629.91	6.4942
2632.2	6.12784
2634.49	5.85995
2636.77	5.53931
2639.06	5.26563
2641.34	4.96841
2643.63	4.72754
2645.91	4.54904
2648.19	4.28513
2650.47	4.13757
2652.75	4.22238
2655.03	4.52789
2657.31	5.44992
2659.59	5.72015
2661.87	5.89383
2664.14	6.12143
2666.42	6.49316
2668.69	6.91949
2670.97	7.31555
2673.24	7.58905
2675.51	7.47321
2677.79	7.31534
2680.06	7.00247
2682.33	6.94275
2684.6	6.77335
2686.87	6.59232
2689.13	6.13443
2691.4	6.00156
2693.67	5.4339
2695.93	4.81125
2698.2	4.14886
2700.46	3.4986
2702.72	2.92114
2704.99	2.18045
2707.25	1.70203
2709.51	1.20654
2711.77	0.630096
2714.03	0.192749
2716.28	-0.0819092
2718.54	-0.217682
2720.8	-0.243774
2723.05	0.151215
2725.31	0.624115
2727.56	1.52914
2729.82	2.39758
2732.07	3.29056
2734.32	4.08679
2736.57	4.94125
2738.83	5.51825
2741.07	5.77832
2743.32	5.95279
2745.57	6.03226
2747.82	5.92844
2750.07	5.63416
2752.31	5.25558
2754.56	5.01572
2756.8	4.70682
2759.04	4.47397
2761.29	4.21219
2763.53	3.78427
2765.77	3.3364
2768.01	2.97345
2770.25	2.54276
2772.49	2.04446
2774.73	1.55084
2776.96	1.03522
2779.2	0.592712
2781.44	0.202179
2783.67	-0.0906067
2785.9	-0.0916748
2788.14	-0.0263977
2790.37	0.327911
2792.6	0.683624
2794.83	1.31604
2797.06	2.14929
2799.29	3.10147
2801.52	3.69672
2803.75	3.79453
2805.98	3.8764
2808.2	3.78033
2810.43	3.65015
2812.65	3.34628
2814.88	2.77267
2817.1	2.16669
2819.32	1.59756
2821.54	1.11328
2823.77	0.972382
2825.99	0.922089
2828.2	0.871796
2830.42	1.03595
2832.64	1.17422
2834.86	1.57339
2837.08	2.02176
2839.29	2.47168
2841.51	2.98376
2843.72	3.42252
2845.93	3.81973
2848.15	3.92676
2850.36	3.97122
2852.57	4.00623
2854.78	3.76898
2856.99	3.37381
2859.2	3.01633
2861.41	2.62872
2863.61	2.33682
2865.82	2.41739
2868.02	2.51926
2870.23	2.66541
2872.43	3.2168
2874.64	3.78561
2876.84	4.42725
2879.04	5.04211
2881.24	5.25043
2883.44	5.3107
2885.64	5.16229
2887.84	4.93735
2890.04	4.46609
2892.24	4.03851
2894.43	3.38467
2896.63	2.7648
2898.82	2.26666
2901.02	2.10794
2903.21	2.5166
2905.41	2.99103
2907.6	3.57263
2909.79	3.8512
2911.98	4.20453
2914.17	4.5011
2916.36	4.61789
2918.55	4.61661
2920.74	4.5484
2922.92	4.51675
2925.11	4.3884
2927.29	4.17722
2929.48	4.26663
2931.66	4.32971
2933.84	3.89319
2936.03	3.52966
2938.21	3.20795
2940.39	3.2851
2942.57	3.21683
2944.75	2.86929
2946.93	2.2402
2949.11	1.5802
2951.28	0.747253
2953.46	-0.0270386
2955.64	-0.368042
2957.81	-0.54068
2959.98	-0.485016
2962.16	-0.349365
2964.33	0.00152588
2966.5	0.112518
2968.67	0.306702
2970.84	0.665131
2973.01	1.20206
2975.18	2.05646
2977.35	3.09418
2979.52	3.76852
2981.68	4.38892
2983.85	4.66946
2986.02	4.17828
2988.18	4.03336
2990.34	4.37823
2992.51	4.71579
2994.67	4.97723
2996.83	5.26581
2998.99	5.35181
3001.15	4.97275
3003.31	4.75818
3005.47	4.5018
3007.63	4.23743
3009.78	4.17667
3011.94	3.97186
3014.1	3.36987
3016.25	2.3692
3018.41	1.32941
3020.56	0.424194
3022.71	-0.334137
3024.86	-0.685486
3027.02	-0.815155
3029.17	-0.731537
3031.32	-0.469635
3033.47	0.125549
3035.61	0.873596
3037.76	1.71271
3039.91	2.68643
3042.05	3.47269
3044.2	4.039
3046.34	4.43726
3048.49	4.78369
3050.63	4.86597
3052.77	4.90079
3054.92	4.40619
3057.06	3.65454
3059.2	2.84457
3061.34	2.03107
3063.48	1.31186
3065.61	0.66272
3067.75	0.201355
3069.89	0.112915
3072.02	0.156158
3074.16	0.440216
3076.29	1.01154
3078.43	2.02979
3080.56	3.43903
3082.69	5.0065
3084.82	6.23111
3086.96	7.40649
3089.09	8.52826
3091.22	9.56082
3093.34	10.7758
3095.47	11.757
3097.6	12.4907
3099.73	13.0274
3101.85	14.1046
3103.98	15.215
3106.1	18.0106
3108.23	19.0009
3110.35	19.2556
3112.47	19.4067
3114.59	19.2719
3116.71	19.0853
3118.83	19.1629
3120.95	19.4418
3123.07	19.9896
3125.19	20.8575
3127.31	22.3868
3129.42	23.9001
3131.54	25.7168
3133.65	27.6023
3135.77	29.4834
3137.88	31.5575
3140	33.6244
3142.11	35.8554
3144.22	38.0187
3146.33	40.0984
3148.44	41.976
3150.55	43.7023
3152.66	44.8854
3154.77	45.5428
3156.87	46.3333
3158.98	47.008
3161.09	47.89
3163.19	48.5332
3165.29	48.7761
3167.4	48.9777
3169.5	49.3068
3171.6	49.7052
3173.71	50.2517
3175.81	50.9689
3177.91	51.7964
3180.01	52.9323
3182.11	54.3449
3184.2	56.4048
3186.3	58.9796
3188.4	62.125
3190.49	65.5009
3192.59	69.4171
3194.68	74.0522
3196.78	79.2179
3198.87	84.98
3200.96	91.2788
3203.05	97.8709
3205.15	105.07
3207.24	112.566
3209.33	120.339
3211.41	128.702
3213.5	137.783
3215.59	147.69
3217.68	157.76
3219.76	168.065
3221.85	178.763
3223.93	189.814
3226.02	201.52
3228.1	213.411
3230.18	225.361
3232.27	237.24
3234.35	248.549
3236.43	257.206
3238.51	266.825
3240.59	275.562
3242.66	283.191
3244.74	289.87
3246.82	295.556
3248.9	299.453
3250.97	301.091
3253.05	300.829
3255.12	299.148
3257.2	296.671
3259.27	293.323
3261.34	289.033
3263.41	284.182
3265.48	279.09
3267.55	274.424
3269.62	269.14
3271.69	263.093
3273.76	256.481
3275.83	249.6
3277.89	242.372
3279.96	234.926
3282.02	227.109
3284.09	219.423
3286.15	211.819
3288.22	204.418
3290.28	197.001
3292.34	189.959
3294.4	183.095
3296.46	176.47
3298.52	170.181
3300.58	164.365
3302.64	158.86
3304.7	154.096
3306.75	149.813
3308.81	145.926
3310.87	142.516
3312.92	139.435
3314.98	136.767
3317.03	134.489
3319.08	132.804
3321.14	131.456
3323.19	130.7
3325.24	129.931
3327.29	129.535
3329.34	129.173
3331.39	128.999
3333.44	128.792
3335.48	128.776
3337.53	128.741
3339.58	128.55
3341.62	128.475
3343.67	128.444
3345.71	128.415
3347.75	128.646
3349.8	129.258
3351.84	130.209
3353.88	131.568
3355.92	133.467
3357.96	135.955
3360	139.111
3362.04	142.555
3364.08	145.964
3366.11	149.914
3368.15	153.905
3370.19	158.759
3372.22	162.567
3374.26	162.969
3376.29	165.993
3378.32	167.474
3380.36	169.686
3382.39	172.393
3384.42	176.128
3386.45	181.129
3388.48	188.042
3390.51	199.55
3392.54	212.905
3394.57	228.986
3396.59	243.312
3398.62	267.772
3400.65	300.488
3402.67	332.714
3404.7	372.998
3406.72	416.477
3408.74	460.06
3410.77	508.737
3412.79	559.576
3414.81	613.431
3416.83	632.643
3418.85	678.31
3420.87	700.592
3422.89	682.219
3424.91	666.87
3426.92	649.143
3428.94	627.628
3430.96	597.299
3432.97	569.052
3434.98	533.756
3437	505.008
3439.01	487.613
3441.02	485.016
3443.04	472.653
3445.05	517.148
3447.06	535.204
3449.07	566.341
3451.08	598.022
3453.09	632.724
3455.09	696.515
3457.1	773.738
3459.11	873.541
3461.11	966.807
3463.12	1053.22
3465.13	1102.16
3467.13	1140.67
3469.13	1140.63
3471.13	1119.2
3473.14	1072.73
3475.14	1023.74
3477.14	961.567
3479.14	898.047
3481.14	835.521
3483.14	773.782
3485.14	713.422
3487.13	654.405
3489.13	599.782
3491.13	547.104
3493.12	499.283
3495.12	448.305
3497.11	410.01
3499.1	374.449
3501.1	344.829
3503.09	318.386
3505.08	296.178
3507.07	278.454
3509.06	265.845
3511.05	254.264
3513.04	244.309
3515.03	234.821
3517.02	225.952
3519	217.568
3520.99	209.34
3522.98	201.627
3524.96	193.809
3526.95	185.86
3528.93	177.608
3530.91	169.826
3532.89	161.44
3534.88	153.365
3536.86	144.292
3538.84	138.119
3540.82	132.541
3542.8	127.445
3544.78	122.588
3546.75	117.886
3548.73	113.12
3550.71	108.542
3552.68	104.185
3554.66	100.197
3556.63	96.6556
3558.61	93.4341
3560.58	90.2382
3562.55	87.0376
3564.53	84.0134
3566.5	80.9889
3568.47	78.2847
3570.44	75.1126
3572.41	72.5491
3574.38	70.227
3576.34	68.2591
3578.31	66.974
3580.28	66.0996
3582.25	65.4765
3584.21	64.9671
3586.18	63.9721
3588.14	62.9933
3590.1	61.514
3592.07	59.6144
3594.03	57.4289
3595.99	53.3685
3597.95	51.6938
3599.91	50.1114
3601.87	48.8749
3603.83	48.0184
3605.79	47.3305
3607.75	46.9957
3609.71	46.6188
3611.66	46.329
3613.62	45.0867
3615.58	43.3436
3617.53	41.4993
3619.49	39.5216
3621.44	37.4084
3623.39	35.0181
3625.34	32.6323
3627.3	30.2589
3629.25	28.009
3631.2	25.8192
3633.15	23.9279
3635.1	22.0287
3637.05	20.2169
3638.99	18.6377
3640.94	17.8166
3642.89	17.6002
3644.83	17.7509
3646.78	17.267
3648.72	16.7336
3650.67	16.0408
3652.61	15.4141
3654.55	14.9512
3656.5	14.5282
3658.44	14.1713
3660.38	13.9145
3662.32	13.45
3664.26	12.8075
3666.2	11.251
3668.14	10.2544
3670.07	9.89871
3672.01	9.56427
3673.95	9.08359
3675.88	8.65865
3677.82	7.29501
3679.75	5.847
3681.69	4.16473
3683.62	2.85181
3685.55	1.65593
3687.49	0.772827
3689.42	0.552872
3691.35	0.54538
3693.28	0.437164
3695.21	0.887222
3697.14	1.76283
3699.07	3.39073
3700.99	4.77225
3702.92	6.13136
3704.85	7.29486
3706.77	8.40208
3708.7	9.36519
3710.62	10.1474
3712.55	10.7704
3714.47	10.8647
3716.39	10.5103
3718.32	9.79257
3720.24	8.98204
3722.16	8.00421
3724.08	7.22546
3726	6.0905
3727.92	4.95146
3729.84	3.96552
3731.76	2.97845
3733.67	1.9509
3735.59	1.24887
3737.51	0.696609
3739.42	0.284714
3741.34	0.0626831
3743.25	-0.0842133
3745.16	0.228073
3747.08	0.492844
3748.99	0.5186
3750.9	0.582382
3752.81	0.546524
3754.72	0.441254
3756.63	0.207321
3758.54	0.194672
3760.45	0.770828
3762.36	1.40976
3764.27	2.21295
3766.17	3.04353
3768.08	4.0692
3769.99	5.26816
3771.89	6.50406
3773.79	7.43912
3775.7	7.99402
3777.6	8.25723
3779.5	8.14175
3781.41	7.5636
3783.31	6.58479
3785.21	5.39264
3787.11	4.2374
3789.01	3.35828
3790.91	2.70471
3792.81	2.24059
3794.7	1.95967
3796.6	1.89677
3798.5	2.13327
3800.39	2.75816
3802.29	3.53683
3804.18	4.40263
3806.08	5.48325
3807.97	6.19168
3809.86	6.7419
3811.76	7.10225
3813.65	6.85733
3815.54	6.06747
3817.43	5.06316
3819.32	4.32536
3821.21	3.70712
3823.1	3.28995
3824.99	3.45744
3826.87	5.70209
3828.76	6.18788
3830.65	5.85365
3832.53	4.41258
3834.42	3.41734
3836.3	1.18291
3838.18	0.207657
3840.07	-0.543045
3841.95	-1.04604
3843.83	-1.1035
3845.71	-0.855942
3847.6	-0.420517
3849.48	0.145874
3851.36	0.834808
3853.23	1.49158
3855.11	2.14557
3856.99	2.77245
3858.87	3.41365
3860.74	3.85123
3862.62	4.32068
3864.5	4.80301
3866.37	4.98572
3868.24	8.23518
3870.12	6.26547
3871.99	4.30421
3873.86	3.18234
3875.74	2.89056
3877.61	4.55609
3879.48	6.31506
3881.35	6.54893
3883.22	7.18004
3885.09	6.34627
3886.95	6.22527
3888.82	4.94931
3890.69	5.12846
3892.56	6.21373
3894.42	7.33182
3896.29	8.45552
3898.15	8.84457
3900.02	6.61633
3901.88	5.84782
3903.74	5.73529
3905.61	5.99139
3907.47	6.16721
3909.33	6.3524
3911.19	6.15863
3913.05	6.05553
3914.91	6.23396
3916.77	6.35239
3918.63	6.33459
3920.48	6.59532
3922.34	6.92043
3924.2	7.26195
3926.05	7.6275
3927.91	7.83926
3929.76	7.98686
3931.62	7.79005
3933.47	7.54407
3935.32	7.06075
3937.18	6.37491
3939.03	5.53589
3940.88	4.2795
3942.73	3.0426
3944.58	1.80786
3946.43	0.946854
3948.28	0.248611
3950.13	0.162354
3951.97	0.242004
3953.82	0.439377
3955.67	0.857132
3957.51	1.63202
3959.36	2.48093
3961.2	3.41092
3963.05	4.26712
3964.89	5.27423
3966.74	5.87331
3968.58	6.43793
3970.42	6.67383
3972.26	6.38434
3974.1	5.81671
3975.94	5.22586
3977.78	4.55246
3979.62	4.25987
3981.46	3.94855
3983.3	3.74257
3985.13	3.72662
3986.97	3.65913
3988.81	3.80251
3990.64	3.57504
3992.48	3.60893
3994.31	3.44022
3996.15	2.52266
3997.98	1.56612
3999.81	0.487946
