#Acq. time (s)=	15
#Accumulations=	2
#Range (cm-¹)=	100...4000
#Windows=	1
#Auto scanning=	Off
#Autofocus=	Off
#Macrospot=	Off
#AutoExposure=	Off
#Spike filter=	Single accum. (Size=4)
#Delay time (s)=	0
#Binning=	1
#Readout mode=	Signal
#DeNoise=	Standard
#ICS correction=	On
#Dark correction=	Off
#Inst. Process=	On
#Detector Gain=	Best Dynamic
#Detector ADC=	50 kHz HS
#Detector temperature (°C)=	-60.09
#Instrument=	LabRAM HR Evol
#Detector=	SIN-EM FIVIS
#Objective=	x50_VIS_LWD
#Grating=	150 (500nm)
#ND Filter=	100%
#Laser=	633nm_Edge
#Hole=	100.021
#Temperature=	0
#Range=	Visible
#StageXY=	75x50mm Scan+
#StageZ=	Z motor
#X (µm)=	0
#Y (µm)=	0
#Z (µm)=	-23.9
#Project=	20_05_11
#Sample=	BU19TS
#Site=	
#Title=	BU19TS-area5-samuelsonite_150 (500nm)_633nm_Edge_100%_x50_VIS_LWD_H100um_15sX2
#Remark=	
#Date=	11.05.2020 19:35
#Acquired=	11.05.2020 19:35:43
#Data Range:Extract=	01.07.2021 19:23:36
#Base:Fit=	01.07.2021 19:24:15
#Base:Fit=	01.07.2021 19:24:39
#Base:Fit=	01.07.2021 19:24:47
#Base:Fit=	01.07.2021 19:25:04
#Base:Fit=	01.07.2021 19:25:10
#Base:Fit=	01.07.2021 19:25:18
#Base:Fit=	01.07.2021 19:25:26
#Base:Fit=	01.07.2021 19:25:33
#Base:Fit=	01.07.2021 19:25:34
#Base:Fit=	01.07.2021 19:25:34
#Base:Fit=	01.07.2021 19:25:34
#Base:Fit=	01.07.2021 19:25:34
#Base:Sub=	01.07.2021 19:25:38
#Edit:Shape=	01.07.2021 19:25:48
#Edit:Shape=	01.07.2021 19:25:50
100.862	644.853
104.122	657.081
107.378	594.192
110.635	525.842
113.889	455.098
117.143	383.865
120.394	317.898
123.646	263.989
126.894	217.848
130.143	179.457
133.388	146.945
136.634	122.039
139.878	102.454
143.121	87.5654
146.361	76.9893
149.602	67.6592
152.84	61.7969
156.077	60.2344
159.313	64.293
162.546	64.0791
165.78	61.9854
169.011	57.5791
172.242	50.666
175.471	42.6416
178.699	33.3984
181.925	23.2109
185.149	11.0801
188.374	-2.8916
191.596	-6.26465
194.818	-7.00391
198.037	0.0400391
201.254	16.7715
204.472	38.0479
207.687	62.7627
210.903	94.3398
214.115	125.919
217.326	156.249
220.537	185.099
223.746	218.707
226.953	239.797
230.16	253.554
233.365	251.78
236.568	222.955
239.771	196.157
242.972	171.749
246.171	149.39
249.371	129.965
252.567	102.658
255.762	79.791
258.958	81.627
262.151	86.5615
265.342	95.4795
268.533	106.246
271.722	121.71
274.91	133.348
278.096	147.998
281.282	157.624
284.466	167.906
287.648	169.981
290.829	168.596
294.01	162.593
297.188	153.271
300.365	141.116
303.541	126.76
306.716	111.133
309.89	97.834
313.061	87.9766
316.232	80.6348
319.401	75.6035
322.57	73.0098
325.737	71.6992
328.902	72.1846
332.066	73.9395
335.229	80.4785
338.392	88.8291
341.552	89.4307
344.711	86.4502
347.868	78.9912
351.024	68.6748
354.179	59.8916
357.335	48.084
360.487	31.6533
363.638	16.5059
366.788	4.02148
369.936	-5.09961
373.084	-9.65723
376.23	-11.0166
379.376	-8.31934
382.519	-0.44043
385.661	13.4004
388.802	34.5
391.942	67.3525
395.08	117.805
398.217	184.764
401.353	269.572
404.487	368.172
407.62	489.913
410.752	648.199
413.884	745.821
417.013	815.735
420.141	824.845
423.268	790.093
426.394	714.336
429.518	672.844
432.641	649.108
435.763	625.971
438.883	613.859
442.002	603.458
445.12	597.528
448.237	591.396
451.352	583.377
454.466	574.694
457.579	564.862
460.691	554.522
463.801	543.031
466.91	531.011
470.018	518.239
473.125	504.54
476.23	483.936
479.334	471.749
482.437	467.593
485.538	468.755
488.638	482.854
491.737	481.296
494.834	472.452
497.93	438.675
501.026	407.492
504.12	369.253
507.212	330.097
510.304	295.016
513.394	266.558
516.483	244.044
519.571	226.937
522.657	215.735
525.743	213.397
528.825	210.301
531.908	212.609
534.989	219.273
538.07	230.123
541.149	243.658
544.227	256.478
547.303	284.829
550.377	318.668
553.451	354.934
556.524	392.959
559.595	450.266
562.666	488.785
565.735	513.647
568.801	532.659
571.868	525.381
574.933	516.204
577.998	512.702
581.061	509.098
584.121	505.198
587.181	498.2
590.241	490.477
593.299	483.146
596.354	476.993
599.41	471.829
602.464	468.51
605.517	465.937
608.568	463.56
611.618	459.498
614.668	447.419
617.716	446.756
620.761	448.629
623.807	451.251
626.852	450.576
629.895	456.765
632.936	472.279
635.977	473.098
639.016	485.475
642.053	464.826
645.091	434.125
648.127	394.079
651.16	328.297
654.193	272.974
657.226	212.368
660.256	170.221
663.286	133.053
666.314	112.779
669.34	98.2832
672.367	89.3613
675.392	95.5449
678.414	98.084
681.437	100.593
684.457	103.698
687.477	106.204
690.496	108.42
693.513	109.368
696.529	108.698
699.543	106.529
702.558	101.344
705.571	92.3311
708.581	80.6631
711.592	68.7227
714.6	55.8838
717.608	42.6484
720.614	30.8564
723.62	20.1367
726.624	10.6963
729.626	3.92285
732.628	-0.805664
735.628	-3.9248
738.628	-5.24512
741.625	-5.72559
744.623	-5.2793
747.618	-8.14844
750.613	-3.79492
753.605	3.95117
756.598	14.4014
759.588	24.541
762.578	33.5762
765.566	40.5283
768.554	46.1006
771.539	52.0352
774.525	62.5908
777.508	76.2109
780.49	75.8682
783.472	72.3516
786.451	63.3535
789.431	56.8447
792.408	51.9365
795.385	48.6797
798.36	49.1807
801.333	54.1465
804.307	67.6875
807.278	80.9121
810.25	92.292
813.219	106.86
816.186	125.29
819.154	146.157
822.119	170.534
825.085	196.577
828.048	223.637
831.01	250.928
833.972	276.826
836.931	301.672
839.889	321.266
842.848	336.339
845.804	346.239
848.759	351.232
851.714	351.684
854.666	348.334
857.617	340.599
860.569	328.386
863.518	308.774
866.465	288.979
869.413	268.023
872.359	244.182
875.303	222.965
878.246	182.786
881.19	162.516
884.13	141.706
887.07	160.388
890.009	129.011
892.947	131.476
895.883	170.724
898.818	229.248
901.752	293.035
904.686	402.48
907.618	635.807
910.548	854.787
913.478	1191.77
916.406	1527.77
919.334	1749.67
922.26	1828.16
925.184	1478.93
928.108	1101.09
931.03	726.943
933.953	517.542
936.873	439.129
939.792	449.15
942.709	490.521
945.626	666.575
948.542	1005.24
951.457	1553.37
954.37	2569.94
957.282	3922.6
960.193	5023.7
963.103	4583.18
966.012	3337.63
968.919	2179.9
971.825	1501.87
974.731	1212.46
977.636	1142.14
980.539	1192.88
983.441	1290.57
986.341	1428.01
989.241	1541.3
992.139	1614.15
995.036	1696.41
997.932	1553.58
1000.83	1308.58
1003.72	1127.62
1006.61	980.736
1009.51	907.197
1012.4	838.411
1015.29	790.708
1018.17	753.207
1021.06	727.644
1023.95	705.487
1026.83	678.725
1029.71	654.499
1032.6	635.804
1035.48	623.793
1038.36	613.39
1041.24	604.894
1044.12	596.592
1046.99	588.143
1049.87	577.815
1052.74	567.468
1055.62	537.635
1058.49	522.066
1061.36	499.399
1064.23	480.352
1067.1	463.045
1069.97	449.469
1072.84	434.023
1075.7	413.251
1078.56	389.546
1081.43	362.086
1084.29	338.146
1087.15	307.947
1090.01	284.266
1092.87	264.36
1095.73	249.413
1098.58	240.022
1101.44	235.248
1104.29	236.182
1107.15	240.904
1110	250.694
1112.85	254.874
1115.7	258.123
1118.55	259.397
1121.4	253.945
1124.24	245.886
1127.09	236.242
1129.94	227.473
1132.78	212.674
1135.62	205.369
1138.46	196.449
1141.3	190.808
1144.14	185.959
1146.98	186.024
1149.81	183.762
1152.65	179.644
1155.49	174.342
1158.32	167.925
1161.15	160.359
1163.98	152.506
1166.81	143.009
1169.64	132.395
1172.47	120.784
1175.3	114.991
1178.12	112.872
1180.95	115.649
1183.77	115.732
1186.59	116.628
1189.41	118.75
1192.23	122.722
1195.05	127.728
1197.87	133.875
1200.69	140.904
1203.5	148.54
1206.32	155.484
1209.13	162.568
1211.94	168.344
1214.75	175.467
1217.56	183.553
1220.37	190.714
1223.18	196.731
1225.99	201.935
1228.79	204.907
1231.6	205.982
1234.4	203.762
1237.21	199.814
1240.01	185.928
1242.81	170.053
1245.61	158.33
1248.41	139.502
1251.2	117.681
1254	93.3916
1256.79	68.418
1259.59	45.8701
1262.38	24.5439
1265.17	6.72168
1267.96	-7.0332
1270.75	-10.208
1273.54	-12.1064
1276.33	-9.92871
1279.12	-8.19727
1281.9	-3.22461
1284.69	3.77832
1287.47	13.2246
1290.25	22.3867
1293.03	33.1309
1295.81	44.4863
1298.59	55.7607
1301.37	67.2441
1304.15	78.7676
1306.92	89.9463
1309.7	98.8965
1312.47	105.057
1315.24	109.861
1318.01	113.638
1320.78	117.195
1323.55	119.055
1326.32	121.514
1329.09	122.923
1331.85	121.963
1334.62	118.532
1337.38	113.886
1340.15	104.182
1342.91	92.1904
1345.67	80.9521
1348.43	70.8789
1351.19	61.6475
1353.95	53.209
1356.7	46.709
1359.46	40.4434
1362.21	35.8623
1364.97	32.0791
1367.72	30.4219
1370.47	32.3457
1373.22	35.3242
1375.97	37.6592
1378.72	39.1025
1381.46	39.708
1384.21	38.1973
1386.96	35.8027
1389.7	32.6182
1392.44	28.8457
1395.18	25.1357
1397.92	21.4561
1400.66	18.9551
1403.4	16.6875
1406.14	14.792
1408.88	13.6006
1411.61	13.1221
1414.35	12.9707
1417.08	12.9043
1419.81	11.7158
1422.54	9.64648
1425.27	8.3584
1428	7.83594
1430.73	6.40527
1433.46	5.0918
1436.18	3.70703
1438.91	2.2959
1441.63	2.8584
1444.36	4.2627
1447.08	5.85352
1449.8	7.54492
1452.52	8.83398
1455.24	9.57324
1457.96	7.96484
1460.67	5.58594
1463.39	1.80762
1466.1	-2.07715
1468.82	-7.54102
1471.53	-12.751
1474.24	-16.1631
1476.95	-17.6465
1479.66	-18.2061
1482.37	-17.9053
1485.08	-17.3457
1487.78	-15.2764
1490.49	-12.5928
1493.19	-6.75586
1495.9	1.85547
1498.6	10.5381
1501.3	16.9424
1504	22.9385
1506.7	26.751
1509.4	29.0684
1512.09	31.5117
1514.79	33.6777
1517.49	38.8516
1520.18	44.7109
1522.87	50.7012
1525.56	57.6768
1528.26	63.042
1530.95	67.6318
1533.63	71.0977
1536.32	70.3428
1539.01	64.2168
1541.7	55.0303
1544.38	44.3564
1547.06	31.3838
1549.75	18.7637
1552.43	7.9668
1555.11	-0.338867
1557.79	-7.29395
1560.47	-12.2031
1563.15	-15.9561
1565.82	-17.8613
1568.5	-18.0781
1571.17	-16.2041
1573.85	-12.3721
1576.52	-6.10352
1579.19	2.48828
1581.86	13.9775
1584.53	27.4512
1587.2	44.0469
1589.87	61.3643
1592.54	69.4023
1595.2	88.1445
1597.86	105.424
1600.53	124.267
1603.19	143.258
1605.85	162.408
1608.51	183.031
1611.17	202.386
1613.83	215.171
1616.49	224.265
1619.15	221.592
1621.8	209.495
1624.46	203.708
1627.11	195.652
1629.76	187.034
1632.41	179.371
1635.06	171.2
1637.71	162.655
1640.36	153.949
1643.01	145.128
1645.66	136.519
1648.3	127.94
1650.95	120.955
1653.59	114.208
1656.23	107.967
1658.87	102.275
1661.52	96.0752
1664.16	89.7188
1666.79	82.5029
1669.43	74.8262
1672.07	68.2803
1674.7	61.5264
1677.34	54.2598
1679.97	47.3936
1682.6	41.124
1685.24	36.1689
1687.87	33.9102
1690.5	35.2627
1693.13	39.1992
1695.75	46.2383
1698.38	55.3203
1701.01	66.3564
1703.63	79.1162
1706.25	92.4219
1708.88	104.027
1711.5	112.774
1714.12	119.729
1716.74	126.726
1719.36	134.576
1721.98	142.695
1724.59	156.066
1727.21	161.143
1729.82	154.994
1732.44	149.428
1735.05	143.699
1737.66	138.268
1740.27	133.879
1742.89	129.508
1745.49	123.488
1748.1	116.854
1750.71	107.738
1753.31	97.5703
1755.92	83.9336
1758.52	69.8008
1761.13	55.8164
1763.73	42.8105
1766.33	33.4922
1768.93	27.5566
1771.53	24.6211
1774.13	24.7871
1776.73	29.5176
1779.32	36.5391
1781.92	44.9727
1784.51	56.127
1787.11	68.2559
1789.7	82.2324
1792.29	97.7539
1794.88	114.26
1797.47	130.518
1800.06	145.82
1802.65	159.313
1805.23	169.426
1807.82	176.582
1810.41	180.211
1812.99	179.18
1815.57	175.803
1818.15	171.127
1820.74	165.039
1823.32	158.326
1825.9	153.391
1828.47	147.795
1831.05	139.701
1833.63	131.023
1836.2	122.707
1838.78	116.273
1841.35	108.803
1843.92	99.7441
1846.49	90.7754
1849.06	82.3691
1851.63	74.7266
1854.2	68.0586
1856.77	63.0078
1859.34	61.0176
1861.9	59.166
1864.47	58.9844
1867.03	59.7559
1869.59	62.5742
1872.16	66.7969
1874.72	72.0078
1877.28	78.0801
1879.84	83.4609
1882.39	87.0293
1884.95	90.1895
1887.51	93.9688
1890.06	98.3926
1892.62	102.926
1895.17	107.758
1897.72	111.133
1900.27	114.344
1902.82	117.953
1905.37	121.691
1907.92	126.477
1910.47	131.443
1913.02	137.309
1915.56	143.736
1918.11	149.863
1920.65	154.408
1923.2	154.871
1925.74	152.537
1928.28	148.473
1930.82	144.207
1933.36	137.828
1935.9	130.074
1938.43	123.281
1940.97	115.662
1943.51	106.326
1946.04	94.5801
1948.57	78.2676
1951.11	61.6406
1953.64	45.1289
1956.17	29.3125
1958.7	17.9219
1961.23	8.63867
1963.76	2.41211
1966.28	-1.51172
1968.81	-3.0957
1971.33	-3.11914
1973.86	-2.79883
1976.38	0.601563
1978.91	5.70313
1981.43	12.248
1983.95	20.1504
1986.47	29.2871
1988.99	40.3672
1991.5	32.5625
1994.02	100.496
1996.54	51.0234
1999.05	48.1836
2001.57	47.7051
2004.08	51.2871
2006.59	56.2754
2009.1	64.3652
2011.61	72.3379
2014.12	80.4434
2016.63	87.8613
2019.14	98.5957
2021.65	109.088
2024.15	120.824
2026.66	131.961
2029.16	139.289
2031.66	142.762
2034.17	141.521
2036.67	124.074
2039.17	118.732
2041.67	118.26
2044.17	131.396
2046.66	132.797
2049.16	133.861
2051.66	134.551
2054.15	135.416
2056.65	137.064
2059.14	139.648
2061.63	143.184
2064.12	147.223
2066.61	152.205
2069.1	157.775
2071.59	162.482
2074.08	166.152
2076.56	167.904
2079.05	168.627
2081.53	167.438
2084.02	164.908
2086.5	162.035
2088.98	144.635
2091.46	133.193
2093.94	124.738
2096.42	118.592
2098.9	113.76
2101.38	142.006
2103.86	147.822
2106.33	153.291
2108.81	155.297
2111.28	156.475
2113.76	158.045
2116.23	155.711
2118.7	148.051
2121.17	139.66
2123.64	131.164
2126.11	123.723
2128.57	115.891
2131.04	108.41
2133.51	100.439
2135.97	91.9941
2138.44	83.9473
2140.9	76.1973
2143.36	68.9922
2145.82	63.3086
2148.28	59.2441
2150.74	57.1836
2153.2	55.3008
2155.66	53.7227
2158.12	52.5039
2160.57	51.4609
2163.03	49.8301
2165.48	47.5566
2167.94	46.877
2170.39	47.2676
2172.84	48.582
2175.29	51.8125
2177.74	57.9785
2180.19	77.1738
2182.64	80.2188
2185.09	80.6523
2187.53	79.2012
2189.98	77.8945
2192.42	76.2988
2194.86	75.0176
2197.31	75.3926
2199.75	75.8594
2202.19	77.4121
2204.63	79.0645
2207.07	84.543
2209.51	92.9531
2211.95	102.896
2214.38	113.205
2216.82	121.777
2219.25	125.457
2221.69	126.152
2224.12	123.924
2226.55	118.135
2228.98	111.26
2231.41	105.316
2233.84	98.793
2236.27	89.8066
2238.7	81.0449
2241.13	73.3613
2243.55	69.084
2245.98	66.125
2248.4	63.834
2250.83	61.0234
2253.25	57.2129
2255.67	52.6094
2258.09	48.1445
2260.51	44.248
2262.93	40.0293
2265.35	34.0469
2267.76	27.043
2270.18	20.0684
2272.6	12.2363
2275.01	4.10742
2277.43	-3.07031
2279.84	-9.75781
2282.25	-16.209
2284.66	-28.6855
2287.07	-29.5742
2289.48	-29.3867
2291.89	-10.2988
2294.3	-6.93555
2296.7	-8.11719
2299.11	-6.14063
2301.52	-2.48047
2303.92	1.37109
2306.32	20.5352
2308.73	34.9004
2311.13	51.3516
2313.53	80.3887
2315.93	103.037
2318.33	109.934
2320.73	109.145
2323.12	93.7148
2325.52	86.5059
2327.92	92.1406
2330.31	99.7793
2332.7	109.211
2335.1	117.992
2337.49	127.455
2339.88	137.703
2342.27	148.49
2344.66	161.619
2347.05	175.541
2349.44	182.758
2351.83	186.063
2354.21	183.58
2356.6	177.156
2358.98	164.238
2361.36	146.873
2363.75	136.254
2366.13	126.352
2368.51	118.461
2370.89	111.486
2373.27	104.023
2375.65	96.9805
2378.03	89.5664
2380.4	81.9336
2382.78	73.7949
2385.15	65.0664
2387.53	56.6621
2389.9	47.709
2392.28	38.5176
2394.65	29.9316
2397.02	21.3203
2399.39	16.2598
2401.76	13.6777
2404.12	14.4922
2406.49	18.6172
2408.86	23.4023
2411.23	30.8906
2413.59	40.6016
2415.95	53
2418.32	66.8691
2420.68	81.3574
2423.04	96.0059
2425.4	109.814
2427.76	123.258
2430.12	135.188
2432.48	147.133
2434.84	158.949
2437.19	171.143
2439.55	185.268
2441.9	199.229
2444.26	211.967
2446.61	222.063
2448.96	225.865
2451.32	227.145
2453.67	227.078
2456.02	225.547
2458.37	224.352
2460.71	222.164
2463.06	219.316
2465.41	215.355
2467.75	210.242
2470.1	203.467
2472.44	194.682
2474.79	182.744
2477.13	170.42
2479.47	158.994
2481.81	150.018
2484.15	143.668
2486.49	139.676
2488.83	137.564
2491.17	137.959
2493.5	140.336
2495.84	142.932
2498.17	147.41
2500.51	151.844
2502.84	158.742
2505.17	165.613
2507.5	173.547
2509.84	180.797
2512.17	186.338
2514.5	191.811
2516.82	194.992
2519.15	195.547
2521.48	194.32
2523.8	191.049
2526.13	186.408
2528.45	182.119
2530.78	177.682
2533.1	175.293
2535.42	172.898
2537.74	170.662
2540.06	167.096
2542.38	161.996
2544.7	159.055
2547.02	159.131
2549.33	161.158
2551.65	164.201
2553.97	168.564
2556.28	173.793
2558.59	178.16
2560.91	183.178
2563.22	188.16
2565.53	192.668
2567.84	194.645
2570.15	191.738
2572.46	186.914
2574.77	181.678
2577.07	179.383
2579.38	176.709
2581.68	172.742
2583.99	168.293
2586.29	161.473
2588.6	153.785
2590.9	147.164
2593.2	142.402
2595.5	141.084
2597.8	140.174
2600.1	138.75
2602.4	128.258
2604.69	122.076
2606.99	119.666
2609.29	117.953
2611.58	119.389
2613.88	123.781
2616.17	129.584
2618.46	122.986
2620.75	128.854
2623.04	138.213
2625.33	149.297
2627.62	160.166
2629.91	171.945
2632.2	183.516
2634.49	192.816
2636.77	197.465
2639.06	195.184
2641.34	187.348
2643.63	169.195
2645.91	157.088
2648.19	145.746
2650.47	134.186
2652.75	119.115
2655.03	106.195
2657.31	94.9902
2659.59	87.3535
2661.87	79.7344
2664.14	72.6016
2666.42	62.7793
2668.69	75.5625
2670.97	93.8711
2673.24	116.711
2675.51	140.469
2677.79	156.443
2680.06	169.955
2682.33	181.447
2684.6	192.6
2686.87	201.932
2689.13	206.875
2691.4	203.939
2693.67	196.209
2695.93	183.135
2698.2	168.699
2700.46	152.918
2702.72	137.416
2704.99	122.996
2707.25	113.494
2709.51	105.316
2711.77	99.7441
2714.03	94.9785
2716.28	91.1719
2718.54	87.4414
2720.8	83.6484
2723.05	76.2891
2725.31	72.3516
2727.56	53.8047
2729.82	24.5762
2732.07	-14.1992
2734.32	19.1433
2736.57	19.1433
2738.83	19.7403
2741.07	32.7508
2743.32	45.7641
2745.57	58.7731
2747.82	71.7709
2750.07	84.7701
2752.31	97.765
2754.56	110.749
2756.8	123.735
2759.04	136.717
2761.29	149.688
2763.53	162.171
2765.77	157.096
2768.01	152.026
2770.25	146.955
2772.49	141.886
2774.73	136.82
2776.96	131.754
2779.2	131.889
2781.44	111.64
2783.67	91.4061
2785.9	71.9356
2788.14	87.106
2790.37	96.9013
2792.6	147.348
2794.83	152.398
2797.06	150.629
2799.29	130.446
2801.52	108.273
2803.75	98.187
2805.98	88.1011
2808.2	78.0229
2810.43	67.9436
2812.65	55.4548
2814.88	63.0093
2817.1	70.558
2819.32	78.1075
2821.54	85.6504
2823.77	93.2256
2825.99	100.405
2828.2	107.581
2830.42	114.759
2832.64	121.93
2834.86	129.103
2837.08	136.27
2839.29	143.438
2841.51	150.6
2843.72	156.377
2845.93	157.63
2848.15	158.882
2850.36	160.134
2852.57	161.386
2854.78	162.636
2856.99	163.887
2859.2	165.137
2861.41	166.387
2863.61	167.636
2865.82	168.533
2868.02	168.533
2870.23	169.326
2872.43	165.582
2874.64	161.841
2876.84	158.102
2879.04	154.363
2881.24	150.88
2883.44	145.899
2885.64	140.919
2887.84	137.41
2890.04	137.41
2892.24	137.41
2894.43	137.41
2896.63	137.41
2898.82	137.41
2901.02	137.492
2903.21	139.749
2905.41	142.006
2907.6	144.261
2909.79	146.516
2911.98	148.77
2914.17	151.025
2916.36	153.277
2918.55	155.529
2920.74	157.78
2922.92	160.03
2925.11	162.28
2927.29	164.528
2929.48	166.777
2931.66	169.024
2933.84	171.27
2936.03	173.517
2938.21	175.762
2940.39	178.006
2942.57	180.249
2944.75	182.492
2946.93	184.734
2949.11	186.975
2951.28	189.215
2953.46	191.455
2955.64	193.694
2957.81	195.932
2959.98	198.169
2962.16	199.656
2964.33	199.656
2966.5	199.656
2968.67	199.656
2970.84	199.656
2973.01	199.656
2975.18	199.656
2977.35	201.146
2979.52	195.538
2981.68	189.931
2983.85	184.327
2986.02	178.725
2988.18	173.124
2990.34	167.525
2992.51	161.929
2994.67	156.333
2996.83	151.663
2998.99	140.248
3001.15	128.837
3003.31	117.429
3005.47	106.512
3007.63	116.284
3009.78	126.047
3011.94	135.811
3014.1	143.635
3016.25	143.886
3018.41	140.634
3020.56	137.385
3022.71	134.136
3024.86	130.887
3027.02	127.64
3029.17	124.396
3031.32	121.15
3033.47	117.491
3035.61	112.627
3037.76	103.328
3039.91	113.05
3042.05	120.753
3044.2	125.609
3046.34	130.465
3048.49	135.319
3050.63	140.17
3052.77	143.288
3054.92	142.076
3057.06	140.864
3059.2	139.653
3061.34	138.442
3063.48	137.231
3065.61	136.021
3067.75	134.812
3069.89	133.602
3072.02	132.393
3074.16	131.179
3076.29	122.318
3078.43	113.464
3080.56	104.609
3082.69	95.7568
3084.82	86.9117
3086.96	78.0655
3089.09	69.2253
3091.22	58.9024
3093.34	44.0416
3095.47	40.1875
3097.6	52.2257
3099.73	64.2638
3101.85	76.2936
3103.98	88.3249
3106.1	100.346
3108.23	112.369
3110.35	124.383
3112.47	136.901
3114.59	142.906
3116.71	148.907
3118.83	154.908
3120.95	160.905
3123.07	168.533
3125.19	168.533
3127.31	168.533
3129.42	168.533
3131.54	168.533
3133.65	171.9
3135.77	164.721
3137.88	157.544
3140	150.366
3142.11	143.195
3144.22	136.025
3146.33	128.854
3148.44	121.69
3150.55	114.528
3152.66	107.365
3154.77	100.206
3156.87	93.0516
3158.98	85.8992
3161.09	78.7451
3163.19	71.5969
3165.29	64.4511
3167.4	57.0354
3169.5	22.1745
3171.6	88.7988
3173.71	139.552
3175.81	147.479
3177.91	155.406
3180.01	163.327
3182.11	168.859
3184.2	169.808
3186.3	170.758
3188.4	171.707
3190.49	172.657
3192.59	173.605
3194.68	176.032
3196.78	170.107
3198.87	164.184
3200.96	158.263
3203.05	152.344
3205.15	146.424
3207.24	140.509
3209.33	134.595
3211.41	128.684
3213.5	122.775
3215.59	116.868
3217.68	110.032
3219.76	100.587
3221.85	91.1443
3223.93	81.705
3226.02	70.3876
3228.1	75.1044
3230.18	77.3072
3232.27	89.5624
3234.35	101.813
3236.43	114.06
3238.51	126.302
3240.59	138.542
3242.66	150.775
3244.74	162.309
3246.82	162.309
3248.9	162.309
3250.97	160.661
3253.05	156.634
3255.12	152.609
3257.2	148.585
3259.27	144.562
3261.34	140.543
3263.41	136.523
3265.48	132.504
3267.55	128.487
3269.62	123.674
3271.69	113.134
3273.76	102.6
3275.83	92.0725
3277.89	81.5441
3279.96	61.1749
3282.02	68.9682
3284.09	76.7596
3286.15	84.5483
3288.22	92.7526
3290.28	98.3565
3292.34	103.958
3294.4	109.559
3296.46	115.155
3298.52	120.751
3300.58	126.346
3302.64	131.186
3304.7	131.186
3306.75	131.186
3308.81	131.186
3310.87	131.186
3312.92	131.186
3314.98	131.186
3317.03	131.186
3319.08	131.186
3321.14	131.646
3323.19	129.655
3325.24	127.665
3327.29	125.676
3329.34	123.687
3331.39	121.699
3333.44	119.712
3335.48	117.726
3337.53	115.739
3339.58	113.754
3341.62	110.78
3343.67	106.15
3345.71	101.523
3347.75	96.8957
3349.8	94.6212
3351.84	96.9332
3353.88	99.2446
3355.92	101.554
3357.96	103.864
3360	106.287
3362.04	106.287
3364.08	106.287
3366.11	106.287
3368.15	106.287
3370.19	106.287
3372.22	106.287
3374.26	106.024
3376.29	104.708
3378.32	103.393
3380.36	102.078
3382.39	100.764
3384.42	99.4496
3386.45	98.1364
3388.48	96.8236
3390.51	95.5105
3392.54	94.4691
3394.57	92.1728
3396.59	89.8782
3398.62	87.5559
3400.65	81.389
3402.67	81.389
3404.7	81.389
3406.72	81.389
3408.74	82.3502
3410.77	80.0608
3412.79	77.7715
3414.81	75.4838
3416.83	73.1969
3418.85	70.9106
3420.87	68.624
3422.89	66.3394
3424.91	64.0556
3426.92	62.7153
3428.94	62.7153
3430.96	62.7153
3432.97	62.7153
3434.98	62.7153
3437	62.7153
3439.01	62.7153
3441.02	62.7153
3443.04	62.7153
3445.05	62.7153
3447.06	62.7153
3449.07	62.7153
3451.08	62.7153
3453.09	62.7153
3455.09	62.7153
3457.1	62.7153
3459.11	62.7153
3461.11	74.9473
3463.12	71.9004
3465.13	69.124
3467.13	68.6455
3469.13	71.8857
3471.13	77.5752
3473.14	76.8408
3475.14	74.8457
3477.14	74.085
3479.14	75.5283
3481.14	78.377
3483.14	82.8818
3485.14	88.6309
3487.13	94.2861
3489.13	98.5234
3491.13	103.212
3493.12	106.945
3495.12	112.221
3497.11	116.464
3499.1	121.716
3501.1	124.732
3503.09	125.102
3505.08	120.799
3507.07	109.464
3509.06	96.4004
3511.05	82.6934
3513.04	68.5254
3515.03	52.8301
3517.02	37.5605
3519	22.1992
3520.99	11.54
3522.98	2.12598
3524.96	-1.91309
3526.95	8.5625
3528.93	8.25684
3530.91	8.76758
3532.89	11.126
3534.88	16.6318
3536.86	23.8711
3538.84	31.1426
3540.82	38.2676
3542.8	42.0898
3544.78	43.3936
3546.75	41.9795
3548.73	37.2871
3550.71	30.0469
3552.68	24.8105
3554.66	23.8418
3556.63	26.2227
3558.61	30.1094
3560.58	33.8516
3562.55	36.6406
3564.53	38.4336
3566.5	38.9355
3568.47	38.3213
3570.44	37.3896
3572.41	23.5615
3574.38	1.15332
3576.34	0.233398
3578.31	2.93457
3580.28	7.64746
3582.25	15.4932
3584.21	25.1729
3586.18	29.3623
3588.14	34.8545
3590.1	41.8447
3592.07	54.6006
3594.03	58.7637
3595.99	59.9922
3597.95	62.1836
3599.91	66.0645
3601.87	65.7266
3603.83	59.3271
3605.79	50.5283
3607.75	40.1406
3609.71	30.7471
3611.66	21.0264
3613.62	10.3047
3615.58	-0.524414
3617.53	-11.9922
3619.49	-21.9814
3621.44	-27.6055
3623.39	-30.958
3625.34	-32.6855
3627.3	-30.1055
3629.25	-24.4219
3631.2	-17.0537
3633.15	-9.30469
3635.1	-2.57422
3637.05	4.25293
3638.99	11.1602
3640.94	17.6445
3642.89	25.7383
3644.83	31.3086
3646.78	35.3525
3648.72	35.3916
3650.67	34.2891
3652.61	32.3643
3654.55	30.0908
3656.5	27.5361
3658.44	25.8945
3660.38	24.7393
3662.32	21.5811
3664.26	17.5811
3666.2	13.3232
3668.14	9.58887
3670.07	6.29492
3672.01	4.05664
3673.95	3.10156
3675.88	2.52539
3677.82	0.303711
3679.75	-1.10156
3681.69	-2.51953
3683.62	-2.3877
3685.55	0.879883
3687.49	4.01758
3689.42	10.3809
3691.35	17.2607
3693.28	24.7139
3695.21	33.0537
3697.14	41.1523
3699.07	58.0986
3700.99	61.5918
3702.92	63.6631
3704.85	61.4717
3706.77	59.0498
3708.7	58.6514
3710.62	59.5439
3712.55	62.3809
3714.47	66.3115
3716.39	70.9951
3718.32	75.9141
3720.24	80.9082
3722.16	83.6113
3724.08	84.0479
3726	81.1357
3727.92	75.0918
3729.84	71.6943
3731.76	68.4688
3733.67	64.0059
3735.59	58.5605
3737.51	50.0654
3739.42	38.0576
3741.34	39.1758
3743.25	43.7002
3745.16	51.334
3747.08	76.9717
3748.99	83.8008
3750.9	89.8291
3752.81	89.999
3754.72	83.3193
3756.63	34.2598
3758.54	29.5791
3760.45	28.8984
3762.36	36.2852
3764.27	56.6719
3766.17	75.8711
3768.08	91.3018
3769.99	104.229
3771.89	112.047
3773.79	113.88
3775.7	103.527
3777.6	93.335
3779.5	82.2793
3781.41	71.0322
3783.31	60.5352
3785.21	51.1602
3787.11	41.668
3789.01	34.4424
3790.91	29.3408
3792.81	27.8281
3794.7	28.5791
3796.6	33.209
3798.5	39.8945
3800.39	47.1992
3802.29	55.623
3804.18	65.0791
3806.08	67.1719
3807.97	66.625
3809.86	65.4727
3811.76	63.2744
3813.65	61.915
3815.54	59.9082
3817.43	58.7422
3819.32	56.5098
3821.21	72.0684
3823.1	74.2012
3824.99	77.7227
3826.87	74.7715
3828.76	66.7461
3830.65	60.6992
3832.53	54.627
3834.42	48.7314
3836.3	53.0791
3838.18	54.0381
3840.07	51.8164
3841.95	48.1406
3843.83	43.8252
3845.71	37.5664
3847.6	30.3926
3849.48	21.7246
3851.36	12.4424
3853.23	1.55078
3855.11	-10.54
3856.99	-23.5596
3858.87	-34.2861
3860.74	-36.8779
3862.62	-36.5576
3864.5	-30.6396
3866.37	-22.6963
3868.24	-14.2139
3870.12	-6.63965
3871.99	0.455078
3873.86	4.8125
3875.74	7.70898
3877.61	9.66016
3879.48	11.6553
3881.35	13.3799
3883.22	14.8252
3885.09	16.5576
3886.95	17.0879
3888.82	16.0273
3890.69	14.4053
3892.56	12.0879
3894.42	9.91992
3896.29	8.35742
3898.15	9.7832
3900.02	11.7598
3901.88	15.0771
3903.74	18.5205
3905.61	24.7773
3907.47	28.4912
3909.33	33.125
3911.19	38.915
3913.05	45.3193
3914.91	52.208
3916.77	58.4951
3918.63	62.3984
3920.48	64.2861
3922.34	60.0313
3924.2	52.9248
3926.05	42.3203
3927.91	30.7246
3929.76	17.7246
3931.62	6.70801
3933.47	-1.88477
3935.32	-8.23242
3937.18	-12.1641
3939.03	-13.542
3940.88	-12.5635
3942.73	-9.3877
3944.58	-2.76074
3946.43	6.00977
3948.28	16.208
3950.13	27.3506
3951.97	38.4102
3953.82	49.1563
3955.67	56.04
3957.51	61.1904
3959.36	50.9961
3961.2	56.3594
3963.05	64.625
3964.89	72.5176
3966.74	80.5273
3968.58	88.8291
3970.42	97.6895
3972.26	108.281
3974.1	118.208
3975.94	128.222
3977.78	138.729
3979.62	150.858
3981.46	164.535
3983.3	179.324
3985.13	188.663
3986.97	197.413
3988.81	206.538
3990.64	219.051
3992.48	231.302
3994.31	244.499
3996.15	256.286
3997.98	269.734
3999.81	283.381
