#Acq. time (s)=	15
#Accumulations=	2
#Range (cm-¹)=	100...4000
#Windows=	1
#Auto scanning=	Off
#Autofocus=	Off
#Macrospot=	Off
#AutoExposure=	Off
#Spike filter=	Single accum. (Size=4)
#Delay time (s)=	0
#Binning=	1
#Readout mode=	Signal
#DeNoise=	Standard
#ICS correction=	On
#Dark correction=	Off
#Inst. Process=	On
#Detector Gain=	Best Dynamic
#Detector ADC=	50 kHz HS
#Detector temperature (°C)=	-60.09
#Instrument=	LabRAM HR Evol
#Detector=	SIN-EM FIVIS
#Objective=	x50_VIS_LWD
#Grating=	150 (500nm)
#ND Filter=	100%
#Laser=	633nm_Edge
#Hole=	100.021
#Temperature=	0
#Range=	Visible
#StageXY=	75x50mm Scan+
#StageZ=	Z motor
#X (µm)=	0
#Y (µm)=	0
#Z (µm)=	76.8
#Project=	20_05_11
#Sample=	BU20b
#Site=	
#Title=	BU20b-area3-blue-rim-on-Scz_bottom_150 (500nm)_633nm_Edge_100%_x50_VIS_LWD_H100um_15sX2
#Remark=	
#Date=	11.05.2020 19:20
#Acquired=	11.05.2020 19:20:54
100.862	1061.68
104.122	1067.81
107.378	1242.46
110.635	1239.75
113.889	1116.23
117.143	982.715
120.394	951.03
123.646	882.861
126.894	834.136
130.143	798.933
133.388	780.624
136.634	780.663
139.878	808.193
143.121	801.447
146.361	847.509
149.602	908.174
152.84	923.039
156.077	895.1
159.313	874.811
162.546	866.805
165.78	888.748
169.011	929.991
172.242	1010.33
175.471	1113.99
178.699	1212.43
181.925	1069.54
185.149	944.27
188.374	863.674
191.596	850.142
194.818	849.853
198.037	854.691
201.254	866.717
204.472	883.725
207.687	898.069
210.903	916.704
214.115	936.665
217.326	952.11
220.537	968.025
223.746	981.782
226.953	974.696
230.16	959.051
233.365	954.81
236.568	944.487
239.771	932.495
242.972	923.33
246.171	926.12
249.371	929.736
252.567	926.921
255.762	978.714
258.958	1021.16
262.151	926.146
265.342	864.77
268.533	857.903
271.722	880.729
274.91	928.659
278.096	994.687
281.282	1051.27
284.466	1078.46
287.648	1037.21
290.829	950.81
294.01	912.471
297.188	909.668
300.365	916.935
303.541	881.147
306.716	856.608
309.89	863.928
313.061	891.832
316.232	987.916
319.401	1059.89
322.57	1029.05
325.737	966.043
328.902	913.779
332.066	870.697
335.229	849.806
338.392	841.435
341.552	834.065
344.711	829.871
347.868	832.218
351.024	844.593
354.179	867.539
357.335	906.303
360.487	993.966
363.638	1049.22
366.788	992.103
369.936	952.486
373.084	887.191
376.23	836.706
379.376	815.891
382.519	797.756
385.661	778.063
388.802	760.719
391.942	752.749
395.08	752.139
398.217	762.085
401.353	782.793
404.487	815.647
407.62	850.193
410.752	922.457
413.884	974.093
417.013	1005.62
420.141	978.748
423.268	940.706
426.394	918.551
429.518	888.259
432.641	873.891
435.763	905.045
438.883	958.476
442.002	1035.28
445.12	1096.98
448.237	1036.56
451.352	962.682
454.466	921.697
457.579	920.038
460.691	950.11
463.801	988.601
466.91	1026.51
470.018	1074.58
473.125	1049.56
476.23	1009.62
479.334	970.203
482.437	969.222
485.538	991.78
488.638	1023.58
491.737	1065.77
494.834	1105.98
497.93	1149.97
501.026	1203.54
504.12	1257.43
507.212	1310.94
510.304	1356.66
513.394	1389.09
516.483	1407.12
519.571	1411.45
522.657	1391.79
525.743	1410.15
528.825	1450.08
531.908	1509.22
534.989	1585.41
538.07	1615
541.149	1619.89
544.227	1549.67
547.303	1481.99
550.377	1408.24
553.451	1379.71
556.524	1437.95
559.595	1569.88
562.666	1729.66
565.735	1839.97
568.801	1845.56
571.868	1771.58
574.933	1636.89
577.998	1430.5
581.061	1298.21
584.121	1208.54
587.181	1167.6
590.241	1172.95
593.299	1233.38
596.354	1353.3
599.41	1524.32
602.464	1757.4
605.517	1820.72
608.568	1725.12
611.618	1496.5
614.668	1282.27
617.716	1090.02
620.761	1008.44
623.807	960.603
626.852	930.096
629.895	910.567
632.936	914.946
635.977	907.688
639.016	917.057
642.053	894.491
645.091	867.472
648.127	837.521
651.16	822.981
654.193	814.369
657.226	813.271
660.256	824.413
663.286	826.074
666.314	810.477
669.34	784.5
672.367	759.241
675.392	728.51
678.414	702.522
681.437	678.882
684.457	655.806
687.477	638.464
690.496	625.757
693.513	615.087
696.529	606.135
699.543	599.271
702.558	594.096
705.571	590.635
708.581	588.314
711.592	586.731
714.6	585.353
717.608	584.519
720.614	583.875
723.62	583.499
726.624	583.51
729.626	582.878
732.628	578.733
735.628	578.057
738.628	578.201
741.625	578.975
744.623	580.241
747.618	581.865
750.613	583.919
753.605	586.334
756.598	589.258
759.588	592.633
762.578	596.318
765.566	599.914
768.554	603.435
771.539	605.991
774.525	608.3
777.508	610.047
780.49	611.681
783.472	612.719
786.451	615.556
789.431	618.418
792.408	621.478
795.385	625.506
798.36	631.315
801.333	632.524
804.307	632.045
807.278	629.43
810.25	625.412
813.219	615.615
816.186	607.12
819.154	598.073
822.119	588.224
825.085	578.363
828.048	571.178
831.01	564.307
833.972	558.288
836.931	552.737
839.889	547.893
842.848	543.7
845.804	540.726
848.759	538.441
851.714	536.872
854.666	535.512
857.617	534.6
860.569	533.383
863.518	531.971
866.465	530.633
869.413	529.594
872.359	528.637
875.303	528.005
878.246	527.305
881.19	526.641
884.13	525.805
887.07	524.609
890.009	523.316
892.947	521.887
895.883	520.504
898.818	519.435
901.752	518.917
904.686	518.529
907.618	518.669
910.548	519.31
913.478	520.305
916.406	522.008
919.334	524.753
922.26	529.108
925.184	535.024
928.108	542.789
931.03	552.274
933.953	563.54
936.873	577.009
939.792	594.506
942.709	610.226
945.626	629.643
948.542	653.724
951.457	681.239
954.37	711.006
957.282	741.214
960.193	772.913
963.103	810.559
966.012	858.273
968.919	925.223
971.825	1040.88
974.731	1175.88
977.636	1269.16
980.539	1342.7
983.441	1415.91
986.341	1520.14
989.241	1642.77
992.139	1770.29
995.036	1819.17
997.932	1681.27
1000.83	1496.31
1003.72	1337.81
1006.61	1262.32
1009.51	1276.2
1012.4	1364.78
1015.29	1500.36
1018.17	1787.85
1021.06	2046.24
1023.95	2163.15
1026.83	2113.63
1029.71	1940.3
1032.6	1777.3
1035.48	1616.19
1038.36	1504.97
1041.24	1438.35
1044.12	1380.31
1046.99	1329.98
1049.87	1264.1
1052.74	1191.95
1055.62	1118.84
1058.49	1095.53
1061.36	1081.45
1064.23	1071.55
1067.1	1066.71
1069.97	1060.92
1072.84	1051.86
1075.7	1035.42
1078.56	1015.79
1081.43	992.844
1084.29	968.295
1087.15	937.595
1090.01	903.315
1092.87	862.784
1095.73	823.295
1098.58	786.156
1101.44	753.129
1104.29	737.471
1107.15	742.223
1110	763.014
1112.85	807.384
1115.7	880.947
1118.55	965.514
1121.4	1054.01
1124.24	1020.68
1127.09	946.372
1129.94	869.391
1132.78	799.712
1135.62	754.56
1138.46	725.629
1141.3	715.696
1144.14	716.643
1146.98	753.041
1149.81	775.327
1152.65	769.839
1155.49	737.812
1158.32	691.967
1161.15	654.705
1163.98	620.842
1166.81	601.883
1169.64	584.875
1172.47	572.261
1175.3	559.73
1178.12	548.423
1180.95	539.393
1183.77	531.281
1186.59	524.517
1189.41	518.762
1192.23	513.751
1195.05	509.346
1197.87	505.483
1200.69	502.421
1203.5	499.734
1206.32	497.422
1209.13	495.123
1211.94	492.831
1214.75	490.598
1217.56	488.683
1220.37	486.708
1223.18	485.101
1225.99	483.515
1228.79	482.245
1231.6	481.06
1234.4	480.003
1237.21	478.956
1240.01	477.653
1242.81	476.396
1245.61	475.125
1248.41	473.839
1251.2	472.278
1254	470.723
1256.79	469.191
1259.59	468.013
1262.38	466.936
1265.17	466.173
1267.96	465.6
1270.75	465.326
1273.54	465.257
1276.33	465.286
1279.12	465.189
1281.9	465.169
1284.69	465.07
1287.47	464.949
1290.25	464.839
1293.03	464.634
1295.81	464.669
1298.59	464.812
1301.37	464.924
1304.15	465.022
1306.92	464.999
1309.7	464.759
1312.47	464.513
1315.24	464.094
1318.01	463.562
1320.78	463.211
1323.55	462.908
1326.32	462.705
1329.09	462.738
1331.85	462.779
1334.62	462.888
1337.38	462.737
1340.15	462.377
1342.91	461.225
1345.67	461.388
1348.43	461.621
1351.19	461.744
1353.95	461.919
1356.7	461.622
1359.46	461.289
1362.21	461.104
1364.97	460.899
1367.72	460.189
1370.47	459.283
1373.22	458.271
1375.97	457.065
1378.72	455.685
1381.46	454.221
1384.21	452.848
1386.96	451.521
1389.7	450.702
1392.44	450.403
1395.18	450.482
1397.92	450.567
1400.66	450.765
1403.4	450.811
1406.14	450.783
1408.88	450.681
1411.61	450.39
1414.35	449.999
1417.08	449.518
1419.81	448.838
1422.54	447.991
1425.27	447.116
1428	445.876
1430.73	444.699
1433.46	443.472
1436.18	442.584
1438.91	442.061
1441.63	441.666
1444.36	441.465
1447.08	441.39
1449.8	441.128
1452.52	440.894
1455.24	440.673
1457.96	440.525
1460.67	440.381
1463.39	440.419
1466.1	440.45
1468.82	440.318
1471.53	440.044
1474.24	439.708
1476.95	439.02
1479.66	438.487
1482.37	438.065
1485.08	437.759
1487.78	437.571
1490.49	437.627
1493.19	437.964
1495.9	438.693
1498.6	438.548
1501.3	438.599
1504	438.682
1506.7	438.598
1509.4	438.309
1512.09	437.755
1514.79	436.924
1517.49	435.716
1520.18	434.48
1522.87	433.297
1525.56	432.34
1528.26	431.352
1530.95	430.708
1533.63	430.336
1536.32	430.088
1539.01	430.025
1541.7	430.026
1544.38	430.367
1547.06	429.78
1549.75	429.881
1552.43	432.527
1555.11	434.169
1557.79	434.939
1560.47	434.835
1563.15	433.581
1565.82	431.556
1568.5	429.034
1571.17	426.412
1573.85	424.516
1576.52	423.308
1579.19	422.986
1581.86	423.001
1584.53	423.074
1587.2	423.255
1589.87	423.526
1592.54	423.83
1595.2	424.434
1597.86	425.013
1600.53	425.48
1603.19	425.765
1605.85	425.912
1608.51	425.909
1611.17	425.737
1613.83	425.318
1616.49	424.827
1619.15	424.336
1621.8	423.789
1624.46	423.478
1627.11	423.309
1629.76	423.47
1632.41	423.536
1635.06	424.103
1637.71	423.58
1640.36	422.629
1643.01	420.912
1645.66	419.527
1648.3	418.654
1650.95	417.842
1653.59	417.043
1656.23	416.694
1658.87	416.38
1661.52	416.153
1664.16	415.913
1666.79	415.692
1669.43	415.44
1672.07	415.31
1674.7	415.191
1677.34	415.112
1679.97	415.005
1682.6	414.757
1685.24	414.527
1687.87	414.117
1690.5	413.576
1693.13	412.842
1695.75	412.084
1698.38	411.268
1701.01	410.425
1703.63	409.569
1706.25	408.899
1708.88	408.285
1711.5	407.501
1714.12	406.62
1716.74	405.638
1719.36	403.935
1721.98	402.891
1724.59	402.232
1727.21	402.169
1729.82	402.472
1732.44	402.852
1735.05	403.349
1737.66	403.715
1740.27	403.996
1742.89	404.037
1745.49	404
1748.1	403.684
1750.71	401.772
1753.31	399.844
1755.92	398.611
1758.52	397.181
1761.13	395.487
1763.73	394.16
1766.33	393.139
1768.93	392.321
1771.53	391.847
1774.13	391.334
1776.73	390.831
1779.32	390.892
1781.92	391.39
1784.51	391.902
1787.11	392.464
1789.7	392.928
1792.29	393.437
1794.88	393.848
1797.47	394.218
1800.06	394.029
1802.65	393.494
1805.23	392.834
1807.82	392.143
1810.41	391.788
1812.99	391.502
1815.57	391.416
1818.15	391.365
1820.74	391.459
1823.32	390.911
1825.9	390.288
1828.47	389.493
1831.05	387.95
1833.63	386.468
1836.2	385.204
1838.78	384.189
1841.35	383.349
1843.92	382.544
1846.49	381.861
1849.06	381.213
1851.63	380.636
1854.2	380.087
1856.77	379.548
1859.34	379.08
1861.9	378.566
1864.47	378.177
1867.03	377.834
1869.59	377.669
1872.16	377.226
1874.72	376.484
1877.28	375.831
1879.84	375.238
1882.39	374.792
1884.95	374.343
1887.51	374.201
1890.06	374.14
1892.62	374.162
1895.17	374.26
1897.72	374.451
1900.27	374.669
1902.82	374.814
1905.37	374.963
1907.92	374.952
1910.47	375.042
1913.02	375.245
1915.56	375.396
1918.11	375.367
1920.65	374.852
1923.2	374.056
1925.74	373.189
1928.28	372.166
1930.82	371.164
1933.36	370.084
1935.9	369.281
1938.43	368.639
1940.97	368.126
1943.51	367.98
1946.04	368.024
1948.57	368.281
1951.11	368.551
1953.64	368.846
1956.17	369.015
1958.7	369.218
1961.23	368.957
1963.76	368.713
1966.28	368.301
1968.81	366.958
1971.33	365.275
1973.86	363.607
1976.38	362.005
1978.91	360.775
1981.43	359.662
1983.95	358.776
1986.47	358.088
1988.99	357.594
1991.5	357.406
1994.02	357.472
1996.54	357.686
1999.05	357.929
2001.57	358.071
2004.08	357.57
2006.59	356.761
2009.1	355.834
2011.61	355.287
2014.12	354.945
2016.63	355.015
2019.14	355.481
2021.65	356.018
2024.15	356.225
2026.66	356.228
2029.16	356.12
2031.66	355.831
2034.17	355.065
2036.67	354.157
2039.17	353.16
2041.67	352.155
2044.17	351.192
2046.66	350.295
2049.16	349.503
2051.66	348.827
2054.15	348.843
2056.65	349.096
2059.14	349.36
2061.63	349.805
2064.12	350.217
2066.61	350.598
2069.1	350.996
2071.59	351.388
2074.08	351.69
2076.56	351.719
2079.05	351.514
2081.53	350.954
2084.02	350.224
2086.5	349.363
2088.98	348.57
2091.46	348.235
2093.94	347.824
2096.42	347.426
2098.9	347.13
2101.38	346.893
2103.86	346.688
2106.33	346.837
2108.81	347.08
2111.28	347.409
2113.76	347.754
2116.23	347.978
2118.7	348.142
2121.17	348.242
2123.64	348.174
2126.11	348.056
2128.57	347.655
2131.04	346.938
2133.51	345.925
2135.97	344.765
2138.44	343.481
2140.9	342.712
2143.36	342.136
2145.82	341.823
2148.28	341.573
2150.74	341.297
2153.2	341.072
2155.66	340.746
2158.12	340.538
2160.57	340.144
2163.03	339.705
2165.48	339.197
2167.94	338.748
2170.39	337.077
2172.84	334.585
2175.29	332.38
2177.74	330.304
2180.19	328.369
2182.64	326.78
2185.09	324.573
2187.53	324.444
2189.98	324.762
2192.42	325.827
2194.86	327.519
2197.31	330.357
2199.75	332.029
2202.19	333.373
2204.63	334.159
2207.07	334.19
2209.51	333.699
2211.95	332.875
2214.38	332.699
2216.82	332.318
2219.25	331.878
2221.69	330.896
2224.12	329.833
2226.55	328.841
2228.98	327.918
2231.41	327.1
2233.84	326.405
2236.27	325.85
2238.7	325.44
2241.13	325.181
2243.55	325.038
2245.98	325.041
2248.4	325.43
2250.83	326.123
2253.25	326.823
2255.67	327.476
2258.09	327.655
2260.51	327.602
2262.93	327.408
2265.35	327.057
2267.76	326.586
2270.18	325.62
2272.6	324.743
2275.01	323.8
2277.43	322.728
2279.84	321.517
2282.25	320.16
2284.66	318.964
2287.07	317.885
2289.48	316.946
2291.89	316.371
2294.3	315.758
2296.7	315.42
2299.11	315.24
2301.52	315.17
2303.92	315.254
2306.32	315.373
2308.73	315.527
2311.13	315.401
2313.53	317.489
2315.93	318.209
2318.33	318.692
2320.73	318.831
2323.12	318.694
2325.52	317.707
2327.92	316.574
2330.31	315.165
2332.7	313.78
2335.1	312.443
2337.49	311.543
2339.88	311.296
2342.27	310.881
2344.66	310.557
2347.05	310.079
2349.44	309.549
2351.83	309.345
2354.21	309.313
2356.6	309.303
2358.98	309.338
2361.36	309.343
2363.75	309.392
2366.13	309.353
2368.51	309.263
2370.89	309.223
2373.27	308.959
2375.65	308.567
2378.03	308.187
2380.4	307.716
2382.78	307.338
2385.15	307.418
2387.53	307.496
2389.9	306.981
2392.28	305.848
2394.65	304.325
2397.02	302.683
2399.39	301.016
2401.76	299.786
2404.12	298.76
2406.49	298.017
2408.86	297.601
2411.23	297.482
2413.59	297.416
2415.95	297.655
2418.32	297.861
2420.68	298.271
2423.04	298.827
2425.4	299.372
2427.76	299.783
2430.12	299.929
2432.48	299.927
2434.84	299.718
2437.19	299.502
2439.55	299.091
2441.9	298.735
2444.26	298.603
2446.61	298.55
2448.96	298.579
2451.32	298.612
2453.67	299.068
2456.02	298.577
2458.37	297.907
2460.71	297.064
2463.06	295.952
2465.41	294.838
2467.75	293.888
2470.1	293.033
2472.44	292.759
2474.79	293.051
2477.13	293.624
2479.47	294.294
2481.81	295.16
2484.15	296.36
2486.49	297.933
2488.83	300.279
2491.17	301.303
2493.5	301.51
2495.84	301.064
2498.17	300.127
2500.51	298.797
2502.84	296.926
2505.17	294.804
2507.5	292.988
2509.84	290.577
2512.17	289.689
2514.5	289.613
2516.82	289.365
2519.15	289.012
2521.48	288.756
2523.8	288.556
2526.13	288.325
2528.45	288.39
2530.78	288.45
2533.1	288.53
2535.42	288.617
2537.74	288.698
2540.06	288.725
2542.38	288.642
2544.7	288.265
2547.02	287.956
2549.33	287.642
2551.65	287.377
2553.97	287.13
2556.28	286.992
2558.59	286.898
2560.91	286.867
2563.22	286.889
2565.53	286.916
2567.84	287.167
2570.15	287.364
2572.46	287.87
2574.77	288.437
2577.07	289.016
2579.38	289.505
2581.68	289.495
2583.99	289.496
2586.29	288.976
2588.6	288.415
2590.9	287.753
2593.2	286.99
2595.5	286.184
2597.8	285.545
2600.1	284.908
2602.4	284.402
2604.69	283.909
2606.99	283.29
2609.29	282.698
2611.58	282.043
2613.88	281.566
2616.17	281.01
2618.46	280.542
2620.75	280.028
2623.04	279.908
2625.33	279.621
2627.62	279.305
2629.91	278.993
2632.2	278.47
2634.49	278.047
2636.77	277.573
2639.06	277.147
2641.34	276.699
2643.63	276.309
2645.91	275.983
2648.19	275.572
2650.47	275.279
2652.75	275.22
2655.03	275.382
2657.31	276.163
2659.59	276.293
2661.87	276.328
2664.14	276.418
2666.42	276.654
2668.69	276.945
2670.97	277.208
2673.24	277.349
2675.51	277.102
2677.79	276.815
2680.06	276.373
2682.33	276.187
2684.6	275.891
2686.87	275.586
2689.13	275.004
2691.4	274.75
2693.67	274.061
2695.93	273.319
2698.2	272.538
2700.46	271.771
2702.72	271.078
2704.99	270.222
2707.25	269.631
2709.51	269.023
2711.77	268.336
2714.03	267.789
2716.28	267.405
2718.54	267.162
2720.8	267.03
2723.05	267.32
2725.31	267.69
2727.56	268.492
2729.82	269.259
2732.07	270.052
2734.32	270.749
2736.57	271.506
2738.83	271.986
2741.07	272.15
2743.32	272.23
2745.57	272.217
2747.82	272.021
2750.07	271.635
2752.31	271.167
2754.56	270.838
2756.8	270.441
2759.04	270.122
2761.29	269.775
2763.53	269.262
2765.77	268.731
2768.01	268.286
2770.25	267.774
2772.49	267.195
2774.73	266.622
2776.96	266.029
2779.2	265.509
2781.44	265.042
2783.67	264.675
2785.9	264.6
2788.14	264.592
2790.37	264.874
2792.6	265.159
2794.83	265.721
2797.06	266.486
2799.29	267.37
2801.52	267.898
2803.75	267.93
2805.98	267.946
2808.2	267.786
2810.43	267.592
2812.65	267.226
2814.88	266.591
2817.1	265.925
2819.32	265.296
2821.54	264.753
2823.77	264.554
2825.99	264.447
2828.2	264.341
2830.42	264.45
2832.64	264.534
2834.86	264.879
2837.08	265.275
2839.29	265.673
2841.51	266.134
2843.72	266.523
2845.93	266.871
2848.15	266.929
2850.36	266.926
2852.57	266.914
2854.78	266.631
2856.99	266.19
2859.2	265.788
2861.41	265.357
2863.61	265.022
2865.82	265.06
2868.02	265.12
2870.23	265.226
2872.43	265.737
2874.64	266.266
2876.84	266.869
2879.04	267.446
2881.24	267.617
2883.44	267.64
2885.64	267.456
2887.84	267.195
2890.04	266.689
2892.24	266.228
2894.43	265.54
2896.63	264.888
2898.82	264.357
2901.02	264.167
2903.21	264.545
2905.41	264.989
2907.6	265.54
2909.79	265.79
2911.98	266.114
2914.17	266.383
2916.36	266.472
2918.55	266.443
2920.74	266.349
2922.92	266.291
2925.11	266.137
2927.29	265.901
2929.48	265.965
2931.66	266.004
2933.84	265.544
2936.03	265.158
2938.21	264.813
2940.39	264.868
2942.57	264.778
2944.75	264.409
2946.93	263.759
2949.11	263.078
2951.28	262.225
2953.46	261.431
2955.64	261.071
2957.81	260.879
2959.98	260.916
2962.16	261.033
2964.33	261.366
2966.5	261.459
2968.67	261.636
2970.84	261.978
2973.01	262.498
2975.18	263.336
2977.35	264.357
2979.52	265.016
2981.68	265.621
2983.85	265.886
2986.02	265.38
2988.18	265.22
2990.34	265.55
2992.51	265.873
2994.67	266.12
2996.83	266.395
2998.99	266.467
3001.15	266.075
3003.31	265.847
3005.47	265.577
3007.63	265.299
3009.78	265.226
3011.94	265.008
3014.1	264.393
3016.25	263.38
3018.41	262.328
3020.56	261.41
3022.71	260.639
3024.86	260.276
3027.02	260.134
3029.17	260.205
3031.32	260.455
3033.47	261.038
3035.61	261.774
3037.76	262.602
3039.91	263.563
3042.05	264.338
3044.2	264.892
3046.34	265.278
3048.49	265.613
3050.63	265.683
3052.77	265.706
3054.92	265.199
3057.06	264.435
3059.2	263.613
3061.34	262.787
3063.48	262.055
3065.61	261.393
3067.75	260.919
3069.89	260.818
3072.02	260.848
3074.16	261.119
3076.29	261.677
3078.43	262.682
3080.56	264.078
3082.69	265.632
3084.82	266.842
3086.96	268.004
3089.09	269.111
3091.22	270.129
3093.34	271.329
3095.47	272.295
3097.6	273.014
3099.73	273.535
3101.85	274.596
3103.98	275.691
3106.1	278.47
3108.23	279.444
3110.35	279.682
3112.47	279.815
3114.59	279.663
3116.71	279.459
3118.83	279.518
3120.95	279.778
3123.07	280.307
3125.19	281.156
3127.31	282.666
3129.42	284.159
3131.54	285.955
3133.65	287.82
3135.77	289.68
3137.88	291.732
3140	293.777
3142.11	295.986
3144.22	298.126
3146.33	300.183
3148.44	302.036
3150.55	303.738
3152.66	304.897
3154.77	305.529
3156.87	306.294
3158.98	306.942
3161.09	307.797
3163.19	308.413
3165.29	308.628
3167.4	308.802
3169.5	309.102
3171.6	309.471
3173.71	309.987
3175.81	310.674
3177.91	311.47
3180.01	312.574
3182.11	313.955
3184.2	315.982
3186.3	318.523
3188.4	321.634
3190.49	324.975
3192.59	328.856
3194.68	333.455
3196.78	338.584
3198.87	344.308
3200.96	350.569
3203.05	357.122
3205.15	364.283
3207.24	371.738
3209.33	379.47
3211.41	387.792
3213.5	396.83
3215.59	406.695
3217.68	416.72
3219.76	426.981
3221.85	437.634
3223.93	448.639
3226.02	460.298
3228.1	472.141
3230.18	484.043
3232.27	495.873
3234.35	507.133
3236.43	515.738
3238.51	525.307
3240.59	533.99
3242.66	541.566
3244.74	548.192
3246.82	553.823
3248.9	557.664
3250.97	559.246
3253.05	558.927
3255.12	557.187
3257.2	554.651
3259.27	551.243
3261.34	546.892
3263.41	541.98
3265.48	536.825
3267.55	532.096
3269.62	526.747
3271.69	520.635
3273.76	513.956
3275.83	507.008
3277.89	499.712
3279.96	492.197
3282.02	484.309
3284.09	476.553
3286.15	468.877
3288.22	461.403
3290.28	453.911
3292.34	446.795
3294.4	439.855
3296.46	433.154
3298.52	426.786
3300.58	420.892
3302.64	415.307
3304.7	410.462
3306.75	406.096
3308.81	402.127
3310.87	398.632
3312.92	395.467
3314.98	392.712
3317.03	390.347
3319.08	388.574
3321.14	387.137
3323.19	386.291
3325.24	385.43
3327.29	384.942
3329.34	384.486
3331.39	384.217
3333.44	383.915
3335.48	383.802
3337.53	383.669
3339.58	383.379
3341.62	383.204
3343.67	383.072
3345.71	382.94
3347.75	383.068
3349.8	383.576
3351.84	384.42
3353.88	385.672
3355.92	387.463
3357.96	389.842
3360	392.888
3362.04	396.221
3364.08	399.518
3366.11	403.353
3368.15	407.23
3370.19	411.967
3372.22	415.658
3374.26	415.942
3376.29	418.846
3378.32	420.207
3380.36	422.296
3382.39	424.88
3384.42	428.491
3386.45	433.367
3388.48	440.152
3390.51	451.532
3392.54	464.759
3394.57	480.709
3396.59	494.904
3398.62	519.231
3400.65	551.812
3402.67	583.904
3404.7	624.051
3406.72	667.392
3408.74	710.836
3410.77	759.373
3412.79	810.072
3414.81	863.784
3416.83	882.852
3418.85	928.373
3420.87	950.51
3422.89	931.989
3424.91	916.491
3426.92	898.614
3428.94	876.948
3430.96	846.466
3432.97	818.066
3434.98	782.615
3437	753.711
3439.01	736.158
3441.02	733.403
3443.04	720.88
3445.05	765.213
3447.06	783.107
3449.07	814.081
3451.08	845.596
3453.09	880.132
3455.09	943.756
3457.1	1020.81
3459.11	1120.44
3461.11	1213.54
3463.12	1299.78
3465.13	1348.54
3467.13	1386.88
3469.13	1386.66
3471.13	1365.06
3473.14	1318.4
3475.14	1269.24
3477.14	1206.88
3479.14	1143.18
3481.14	1080.47
3483.14	1018.55
3485.14	957.999
3487.13	898.796
3489.13	843.983
3491.13	791.115
3493.12	743.104
3495.12	691.933
3497.11	653.443
3499.1	617.688
3501.1	587.871
3503.09	561.231
3505.08	538.824
3507.07	520.9
3509.06	508.089
3511.05	496.306
3513.04	486.148
3515.03	476.455
3517.02	467.379
3519	458.788
3520.99	450.352
3522.98	442.429
3524.96	434.4
3526.95	426.238
3528.93	417.773
3530.91	409.776
3532.89	401.174
3534.88	392.882
3536.86	383.591
3538.84	377.199
3540.82	371.4
3542.8	366.082
3544.78	361.002
3546.75	356.075
3548.73	351.084
3550.71	346.279
3552.68	341.694
3554.66	337.477
3556.63	333.706
3558.61	330.253
3560.58	326.825
3562.55	323.39
3564.53	320.132
3566.5	316.871
3568.47	313.93
3570.44	310.52
3572.41	307.717
3574.38	305.154
3576.34	302.945
3578.31	301.417
3580.28	300.299
3582.25	299.431
3584.21	298.676
3586.18	297.433
3588.14	296.206
3590.1	294.478
3592.07	292.328
3594.03	289.891
3595.99	285.578
3597.95	283.65
3599.91	281.813
3601.87	280.321
3603.83	279.208
3605.79	278.262
3607.75	277.669
3609.71	277.032
3611.66	276.482
3613.62	274.978
3615.58	272.972
3617.53	270.864
3619.49	268.622
3621.44	266.243
3623.39	263.586
3625.34	260.932
3627.3	258.29
3629.25	255.771
3631.2	253.311
3633.15	251.148
3635.1	248.977
3637.05	246.892
3638.99	245.038
3640.94	243.942
3642.89	243.45
3644.83	243.324
3646.78	242.563
3648.72	241.751
3650.67	240.779
3652.61	239.872
3654.55	239.128
3656.5	238.423
3658.44	237.783
3660.38	237.243
3662.32	236.494
3664.26	235.567
3666.2	233.725
3668.14	232.441
3670.07	231.798
3672.01	231.176
3673.95	230.406
3675.88	229.692
3677.82	228.038
3679.75	226.299
3681.69	224.325
3683.62	222.72
3685.55	221.231
3687.49	220.054
3689.42	219.54
3691.35	219.237
3693.28	218.834
3695.21	218.987
3697.14	219.566
3699.07	220.897
3700.99	221.98
3702.92	223.041
3704.85	223.905
3706.77	224.713
3708.7	225.376
3710.62	225.857
3712.55	226.179
3714.47	225.972
3716.39	225.315
3718.32	224.295
3720.24	223.181
3722.16	221.9
3724.08	220.817
3726	219.378
3727.92	217.934
3729.84	216.643
3731.76	215.35
3733.67	214.016
3735.59	213.008
3737.51	212.149
3739.42	211.43
3741.34	210.901
3743.25	210.447
3745.16	210.451
3747.08	210.408
3748.99	210.125
3750.9	209.881
3752.81	209.536
3754.72	209.122
3756.63	208.578
3758.54	208.256
3760.45	208.523
3762.36	208.852
3764.27	209.346
3766.17	209.867
3768.08	210.582
3769.99	211.471
3771.89	212.397
3773.79	213.022
3775.7	213.266
3777.6	213.219
3779.5	212.794
3781.41	211.905
3783.31	210.616
3785.21	209.114
3787.11	207.649
3789.01	206.46
3790.91	205.496
3792.81	204.722
3794.7	204.132
3796.6	203.759
3798.5	203.686
3800.39	204.002
3802.29	204.472
3804.18	205.029
3806.08	205.801
3807.97	206.201
3809.86	206.444
3811.76	206.496
3813.65	205.944
3815.54	204.847
3817.43	203.536
3819.32	202.492
3821.21	201.568
3823.1	200.846
3824.99	200.708
3826.87	202.648
3828.76	202.83
3830.65	202.192
3832.53	200.448
3834.42	199.15
3836.3	196.614
3838.18	195.337
3840.07	194.285
3841.95	193.482
3843.83	193.125
3845.71	193.074
3847.6	193.211
3849.48	193.48
3851.36	193.871
3853.23	194.232
3855.11	194.591
3856.99	194.923
3858.87	195.27
3860.74	195.415
3862.62	195.592
3864.5	195.783
3866.37	195.675
3868.24	198.635
3870.12	196.377
3871.99	194.128
3873.86	192.719
3875.74	192.142
3877.61	193.522
3879.48	194.998
3881.35	194.949
3883.22	195.299
3885.09	194.184
3886.95	193.784
3888.82	192.23
3890.69	192.132
3892.56	192.942
3894.42	193.785
3896.29	194.636
3898.15	194.753
3900.02	192.254
3901.88	191.216
3903.74	190.835
3905.61	190.825
3907.47	190.735
3909.33	190.656
3911.19	190.2
3913.05	189.836
3914.91	189.755
3916.77	189.615
3918.63	189.341
3920.48	189.347
3922.34	189.419
3924.2	189.509
3926.05	189.624
3927.91	189.587
3929.76	189.488
3931.62	189.047
3933.47	188.557
3935.32	187.833
3937.18	186.907
3939.03	185.83
3940.88	184.338
3942.73	182.867
3944.58	181.4
3946.43	180.309
3948.28	179.382
3950.13	179.07
3951.97	178.925
3953.82	178.9
3955.67	179.098
3957.51	179.655
3959.36	180.288
3961.2	181.004
3963.05	181.648
3964.89	182.446
3966.74	182.838
3968.58	183.197
3970.42	183.231
3972.26	182.741
3974.1	181.975
3975.94	181.189
3977.78	180.322
3979.62	179.839
3981.46	179.339
3983.3	178.947
3985.13	178.748
3986.97	178.5
3988.81	178.465
3990.64	178.062
3992.48	177.923
3994.31	177.584
3996.15	176.499
3997.98	175.378
3999.81	174.137
