#Acq. time (s)=	30
#Accumulations=	2
#Range (cm-¹)=	100...4000
#Windows=	1
#Auto scanning=	Off
#Autofocus=	Off
#Macrospot=	Off
#AutoExposure=	Off
#Spike filter=	Multiple accum.
#Delay time (s)=	2
#Binning=	1
#Readout mode=	Signal
#DeNoise=	Standard
#ICS correction=	On
#Dark correction=	Off
#Inst. Process=	Off
#Detector Gain=	Best Dynamic
#Detector ADC=	50 kHz HS
#Detector temperature (°C)=	-60.09
#Instrument=	LabRAM HR Evol
#Detector=	SIN-EM FIVIS
#Objective=	x50_VIS_LWD
#Grating=	150 (500nm)
#ND Filter=	100%
#Laser=	633nm_Edge
#Hole=	30.0125
#Temperature=	0
#Range=	Visible
#StageXY=	75x50mm Scan+
#StageZ=	Z motor
#X (µm)=	0
#Y (µm)=	0
#Z (µm)=	58.5
#Full time(mm:ss)=	1:04
#Project=	21_02_17
#Sample=	BU19w
#Site=	
#Title=	BU19w-Area11-bertossaite-bottom_150 (500nm)_633nm_Edge_100%_x50_VIS_LWD_H30um_30sX2
#Remark=	
#Date=	17.02.2021 10:27
#Acquired=	17.02.2021 10:27:54
100.724	550.723
103.982	519.048
107.24	494.379
110.497	480.454
113.751	472.198
117.005	468.357
120.256	468.435
123.507	470.084
126.756	473.544
130.005	472.076
133.251	476.329
136.497	479.105
139.74	488.438
142.982	499.878
146.224	513.609
149.463	522.174
152.702	523.489
155.939	516.326
159.175	507.613
162.409	496.411
165.643	532.639
168.874	590.731
172.105	676.668
175.334	699.92
178.561	594.997
181.788	507.674
185.013	464.458
188.237	444.058
191.459	434.344
194.679	429.823
197.9	430.037
201.118	432.749
204.336	432.3
207.551	430.543
210.765	429.59
213.979	424.045
217.19	425.423
220.4	423.701
223.61	428.581
226.817	435.297
230.024	449.391
233.229	476.714
236.432	522.963
239.635	603.284
242.836	693.234
246.035	733.794
249.233	714.172
252.431	636.348
255.627	566.885
258.821	543.438
262.015	543.489
265.206	543.067
268.397	551.874
271.587	550.739
274.774	549.656
277.96	536.907
281.145	525.284
284.33	527.991
287.513	538.703
290.694	556.348
293.873	581.656
297.053	573.46
300.23	543.185
303.406	518.982
306.58	496.991
309.755	487.013
312.927	492.913
316.097	501.343
319.266	523.431
322.434	568.155
325.602	634.684
328.768	734.459
331.932	921.186
335.095	1104.29
338.256	1123.79
341.418	940.931
344.577	788.511
347.734	673.164
350.89	589.097
354.045	546.95
357.199	528.876
360.353	526.553
363.504	537.391
366.654	549.297
369.803	567.706
372.95	570.711
376.096	573.743
379.241	556.501
382.384	537.565
385.528	505.699
388.669	480.677
391.808	465.64
394.947	470.602
398.084	469.697
401.219	472.811
404.354	473.952
407.487	475.972
410.619	478.872
413.75	482.389
416.879	488.324
420.007	493.731
423.135	504.189
426.261	523.514
429.385	545.308
432.508	571.851
435.63	601.456
438.751	634.185
441.87	665.888
444.988	687.733
448.105	668.2
451.22	635.191
454.334	603.14
457.447	615.745
460.559	624.175
463.669	658.757
466.778	640.112
469.886	610.36
472.993	579.391
476.098	555.134
479.202	532.898
482.303	516.216
485.405	510.755
488.505	504.687
491.604	500.719
494.702	498.917
497.799	499.185
500.894	501.126
503.988	506.9
507.081	517.846
510.173	530.914
513.263	549.122
516.352	567.302
519.44	582.406
522.525	593.671
525.61	601.839
528.694	593.494
531.777	592.594
534.859	584.649
537.939	575.444
541.018	567.908
544.096	560.901
547.171	555.359
550.246	547.41
553.32	539.745
556.393	532.096
559.465	525.187
562.535	518.258
565.603	510.932
568.671	503.261
571.738	495.486
574.803	487.961
577.867	481.361
580.929	475.889
583.991	473.497
587.051	471.669
590.111	469.797
593.167	473.438
596.224	477.988
599.28	483.611
602.334	490.09
605.387	497.518
608.438	503.468
611.489	513.857
614.538	523.789
617.585	534.521
620.632	543.853
623.678	552.308
626.722	559.562
629.764	561.175
632.807	560.199
635.847	552.673
638.886	540.898
641.924	528.091
644.962	496.519
647.998	488.116
651.031	485.979
654.065	486.854
657.097	487.994
660.127	493.16
663.157	494.138
666.184	493.561
669.212	490.925
672.238	485.763
675.262	480.043
678.286	472.343
681.309	465.261
684.329	456.607
687.349	448.843
690.367	441.822
693.385	435.763
696.401	430.656
699.415	426.252
702.43	422.772
705.441	422.15
708.453	421.68
711.464	421.206
714.472	420.71
717.48	420.385
720.486	419.947
723.492	421.265
726.495	420.69
729.499	419.237
732.5	417.578
735.501	416.454
738.501	415.117
741.498	412.879
744.495	411.686
747.49	411.217
750.485	411.323
753.478	412.599
756.471	412.97
759.461	413.321
762.451	413.59
765.439	414.009
768.426	414.808
771.413	415.411
774.397	415.63
777.381	415.348
780.363	414.67
783.345	413.853
786.325	412.988
789.304	412.09
792.281	411.928
795.257	412.457
798.234	412.258
801.207	411.919
804.181	411.515
807.152	411.137
810.124	410.86
813.092	410.787
816.06	410.9
819.028	411.047
821.993	411.319
824.958	411.663
827.922	412.107
830.884	412.801
833.846	413.301
836.805	413.882
839.764	414.618
842.722	415.533
845.678	416.623
848.633	417.981
851.588	420.317
854.541	422.69
857.492	425.473
860.442	428.581
863.392	432.325
866.34	436.369
869.287	440.654
872.234	444.436
875.178	448.317
878.121	452.656
881.063	454.793
884.005	455.799
886.945	456.159
889.884	455.247
892.822	453.564
895.759	452.452
898.694	451.14
901.628	448.547
904.56	446.085
907.493	444.013
910.424	442.584
913.353	440.856
916.281	440.452
919.21	441.008
922.135	442.955
925.06	446.23
927.984	451.18
930.906	459.035
933.827	467.512
936.749	477.639
939.668	488.097
942.585	501.307
945.502	524.54
948.418	549.271
951.332	580.183
954.245	612.697
957.159	646.4
960.07	679.186
962.979	694.471
965.888	678.66
968.796	673.757
971.702	660.638
974.607	650.238
977.511	645.326
980.414	661.672
983.317	685.825
986.218	725.713
989.118	770.812
992.016	826.072
994.913	908.099
997.809	973.132
1000.7	919.424
1003.6	855.23
1006.49	799.861
1009.38	757.627
1012.27	737.237
1015.16	727.839
1018.05	730.745
1020.94	747.204
1023.82	766.675
1026.71	813.458
1029.59	863.996
1032.48	916.316
1035.36	878.426
1038.24	808.684
1041.12	734.135
1043.99	673.611
1046.87	624.145
1049.75	589.232
1052.62	567.142
1055.5	547.901
1058.37	533.853
1061.24	524.611
1064.11	516.194
1066.98	509.795
1069.85	498.262
1072.71	487.924
1075.58	481.726
1078.44	479.892
1081.31	482.119
1084.17	488.827
1087.03	503.525
1089.89	522.778
1092.75	546.085
1095.61	573.665
1098.46	604.684
1101.32	648.455
1104.17	714.207
1107.03	772.001
1109.88	802.427
1112.73	720.899
1115.58	624.433
1118.43	576.061
1121.28	536.631
1124.12	515.08
1126.97	500.255
1129.81	491.492
1132.66	490.893
1135.5	495.464
1138.34	508.025
1141.18	527.358
1144.02	556.315
1146.86	585.299
1149.69	620.918
1152.53	650.256
1155.36	696.103
1158.2	749.97
1161.03	832.774
1163.86	863.675
1166.69	751.65
1169.52	617.05
1172.35	542.172
1175.17	509.227
1178	487.962
1180.83	472.603
1183.65	461.762
1186.47	454.982
1189.29	442.908
1192.11	435.22
1194.93	426.445
1197.75	420.184
1200.57	412.579
1203.38	406.963
1206.2	402.765
1209.01	399.913
1211.82	397.175
1214.63	394.715
1217.44	392.52
1220.25	390.517
1223.06	388.902
1225.87	387.962
1228.68	386.198
1231.48	384.048
1234.28	381.75
1237.09	380.047
1239.89	378.596
1242.69	377.344
1245.49	376.075
1248.29	375.17
1251.08	374.441
1253.88	373.804
1256.68	373.315
1259.47	372.911
1262.26	372.549
1265.05	372.285
1267.85	372.016
1270.63	371.704
1273.42	371.512
1276.21	371.34
1279	371.202
1281.78	371.038
1284.57	370.804
1287.35	370.68
1290.13	370.664
1292.91	370.678
1295.69	370.71
1298.47	370.631
1301.25	370.141
1304.03	369.678
1306.8	369.23
1309.58	368.8
1312.35	368.437
1315.13	368.129
1317.9	367.826
1320.67	367.901
1323.44	368.095
1326.2	368.142
1328.97	367.721
1331.74	366.433
1334.5	364.864
1337.27	363.097
1340.03	361.463
1342.79	359.853
1345.55	358.322
1348.31	357.032
1351.07	355.734
1353.83	354.496
1356.58	352.514
1359.34	352.493
1362.1	351.702
1364.85	352.702
1367.6	353.903
1370.35	359.61
1373.1	360.843
1375.85	361.214
1378.6	360.474
1381.35	358.998
1384.09	356.884
1386.84	354.118
1389.58	351.069
1392.32	347.739
1395.07	346.488
1397.81	349.034
1400.55	351.221
1403.29	352.225
1406.02	354.012
1408.76	355.581
1411.5	356.628
1414.23	357.681
1416.96	358.371
1419.7	358.679
1422.43	358.541
1425.16	358.306
1427.89	357.732
1430.61	357.008
1433.34	355.098
1436.07	353.037
1438.79	350.848
1441.52	348.829
1444.24	346.926
1446.96	345.179
1449.68	343.577
1452.4	342.139
1455.12	340.885
1457.84	339.801
1460.56	339.011
1463.27	338.348
1465.99	337.954
1468.7	337.817
1471.41	337.82
1474.12	338.729
1476.84	340.107
1479.55	341.399
1482.25	342.496
1484.96	343.063
1487.67	343.394
1490.37	343.343
1493.08	343.096
1495.78	342.581
1498.48	341.856
1501.18	340.885
1503.89	339.675
1506.58	338.298
1509.28	336.76
1511.98	335.217
1514.68	334.059
1517.37	333.111
1520.07	332.604
1522.76	332.29
1525.45	332.93
1528.14	333.869
1530.83	334.89
1533.52	335.947
1536.21	336.609
1538.9	337.195
1541.58	337.688
1544.27	337.775
1546.95	337.598
1549.63	337.306
1552.31	336.81
1555	336.199
1557.68	335.452
1560.35	334.802
1563.03	334.01
1565.71	333.146
1568.39	332.373
1571.06	331.593
1573.73	330.795
1576.41	329.913
1579.08	330.045
1581.75	330.282
1584.42	330.549
1587.09	330.768
1589.76	330.913
1592.42	330.601
1595.09	330.128
1597.75	329.634
1600.42	329.066
1603.08	328.486
1605.74	327.94
1608.4	327.354
1611.06	326.867
1613.72	326.348
1616.38	325.93
1619.03	325.654
1621.69	325.348
1624.34	325.076
1627	324.793
1629.65	324.542
1632.3	324.373
1634.95	324.2
1637.6	323.951
1640.25	323.62
1642.9	322.801
1645.54	322.037
1648.19	321.12
1650.83	319.961
1653.48	318.837
1656.12	317.778
1658.76	317.151
1661.4	316.617
1664.04	316.401
1666.68	316.43
1669.32	316.56
1671.96	316.819
1674.59	317.057
1677.23	317.565
1679.86	317.444
1682.49	317.244
1685.12	316.831
1687.75	316.38
1690.39	315.72
1693.01	314.952
1695.64	314.041
1698.27	313.137
1700.89	312.279
1703.52	311.867
1706.14	311.814
1708.77	311.906
1711.39	312.03
1714.01	312.029
1716.63	312.127
1719.25	312.247
1721.86	312.394
1724.48	312.501
1727.1	312.518
1729.71	313.414
1732.33	314.214
1734.94	314.381
1737.55	313.579
1740.16	312.298
1742.77	310.858
1745.38	309.274
1747.99	307.582
1750.6	305.86
1753.2	304.263
1755.81	302.65
1758.41	301.246
1761.02	300.045
1763.62	299.176
1766.22	298.848
1768.82	298.966
1771.42	299.376
1774.02	299.657
1776.62	299.486
1779.21	300.389
1781.81	301.945
1784.4	303.217
1787	304.342
1789.59	305.038
1792.18	305.988
1794.77	306.123
1797.36	305.752
1799.95	305.167
1802.54	304.521
1805.12	303.738
1807.71	302.8
1810.3	301.652
1812.88	298.113
1815.46	297.351
1818.05	296.69
1820.63	295.762
1823.21	295.016
1825.79	294.591
1828.36	295.133
1830.94	295.993
1833.52	296.879
1836.09	297.252
1838.67	297.017
1841.24	296.586
1843.81	296.025
1846.38	296.019
1848.95	295.964
1851.52	295.812
1854.09	295.495
1856.66	295.167
1859.23	294.795
1861.79	294.432
1864.36	293.894
1866.92	293.359
1869.48	292.446
1872.05	291.655
1874.61	291.327
1877.17	291.405
1879.73	292.393
1882.28	293.634
1884.84	293.903
1887.4	293.441
1889.95	292.795
1892.51	291.896
1895.06	290.89
1897.61	289.789
1900.17	288.642
1902.72	287.442
1905.27	286.324
1907.81	285.102
1910.36	283.928
1912.91	282.663
1915.45	281.509
1918	280.363
1920.54	279.242
1923.09	278.238
1925.63	277.352
1928.17	276.942
1930.71	276.707
1933.25	276.509
1935.79	276.414
1938.33	276.474
1940.86	277.502
1943.4	278.528
1945.93	279.511
1948.47	280.367
1951	281.046
1953.53	281.465
1956.06	281.603
1958.59	281.79
1961.12	281.495
1963.65	281.025
1966.18	280.384
1968.7	279.651
1971.23	278.788
1973.75	277.848
1976.28	276.817
1978.8	275.717
1981.32	274.597
1983.84	273.559
1986.36	272.471
1988.88	271.363
1991.4	270.276
1993.91	268.956
1996.43	267.617
1998.94	266.242
2001.46	264.867
2003.97	263.495
2006.48	262.168
2009	261.134
2011.51	260.202
2014.02	259.316
2016.52	259.164
2019.03	259.648
2021.54	260.305
2024.05	261.013
2026.55	261.66
2029.05	262.298
2031.56	262.861
2034.06	263.399
2036.56	263.833
2039.06	264.182
2041.56	264.421
2044.06	264.559
2046.56	264.491
2049.05	264.371
2051.55	264.233
2054.04	264.053
2056.54	264.408
2059.03	265.071
2061.52	265.314
2064.01	265.465
2066.51	265.418
2068.99	265.227
2071.48	264.82
2073.97	264.452
2076.46	264.409
2078.94	263.804
2081.43	263.163
2083.91	262.473
2086.4	261.595
2088.88	260.89
2091.36	260.287
2093.84	259.782
2096.32	259.281
2098.8	258.839
2101.28	258.422
2103.75	258.031
2106.23	257.709
2108.7	257.342
2111.18	256.995
2113.65	256.669
2116.12	256.414
2118.59	256.289
2121.06	256.224
2123.53	256.698
2126	257.02
2128.47	257.272
2130.94	256.936
2133.4	256.035
2135.87	255.196
2138.33	254.708
2140.79	254.313
2143.26	253.889
2145.72	253.555
2148.18	253.189
2150.64	252.896
2153.1	252.316
2155.56	251.63
2158.01	250.854
2160.47	250.101
2162.92	249.39
2165.38	248.839
2167.83	248.392
2170.28	247.9
2172.74	247.355
2175.19	246.518
2177.64	245.451
2180.09	244.458
2182.53	243.423
2184.98	243.035
2187.43	242.946
2189.87	243.312
2192.32	243.914
2194.76	244.478
2197.2	245.045
2199.65	245.558
2202.09	246.018
2204.53	246.395
2206.97	246.695
2209.4	246.902
2211.84	247.042
2214.28	247.024
2216.71	246.886
2219.15	246.597
2221.58	246.173
2224.02	245.604
2226.45	244.974
2228.88	244.162
2231.31	243.421
2233.74	242.355
2236.17	241.232
2238.6	240.058
2241.02	238.849
2243.45	237.656
2245.87	236.384
2248.3	235.237
2250.72	234.379
2253.14	233.505
2255.57	232.691
2257.99	232.073
2260.41	231.536
2262.83	231.036
2265.24	230.456
2267.66	229.941
2270.08	229.433
2272.49	228.906
2274.91	228.389
2277.32	227.798
2279.74	227.203
2282.15	226.483
2284.56	225.953
2286.97	225.465
2289.38	225.052
2291.79	224.863
2294.2	224.704
2296.6	224.693
2299.01	224.795
2301.41	225.134
2303.82	225.79
2306.22	226.443
2308.62	227.083
2311.02	227.344
2313.43	227.223
2315.83	226.736
2318.22	225.974
2320.62	225.049
2323.02	223.815
2325.42	222.55
2327.81	221.703
2330.21	221.522
2332.6	221.562
2335	221.887
2337.39	222.247
2339.78	222.708
2342.17	223.714
2344.56	224.765
2346.95	225.491
2349.34	225.783
2351.72	225.682
2354.11	225.247
2356.49	224.381
2358.88	223.092
2361.26	221.483
2363.65	219.637
2366.03	217.518
2368.41	215.654
2370.79	214.26
2373.17	213.395
2375.55	212.78
2377.93	212.584
2380.3	212.764
2382.68	213.415
2385.05	214.394
2387.43	217.828
2389.8	219.755
2392.17	221.116
2394.55	221.845
2396.92	222.085
2399.29	221.817
2401.66	221.063
2404.02	219.918
2406.39	217.958
2408.76	215.845
2411.13	214.629
2413.49	213.675
2415.85	212.906
2418.22	212.338
2420.58	211.817
2422.94	211.309
2425.3	211.109
2427.66	211.143
2430.02	211.403
2432.38	211.772
2434.74	212.25
2437.09	212.686
2439.45	212.83
2441.8	212.919
2444.16	212.746
2446.51	212.19
2448.86	211.467
2451.22	210.599
2453.57	210.318
2455.92	210.015
2458.27	209.678
2460.61	209.328
2462.96	208.244
2465.31	207.173
2467.65	206.022
2470	204.928
2472.34	203.991
2474.69	203.482
2477.03	203.213
2479.37	203.171
2481.71	203.372
2484.05	203.741
2486.39	204.313
2488.73	204.968
2491.07	205.588
2493.4	206.184
2495.74	206.453
2498.07	205.61
2500.41	205.904
2502.74	207.3
2505.07	208.595
2507.41	209.153
2509.74	209.502
2512.07	209.835
2514.4	209.749
2516.72	209.124
2519.05	207.446
2521.38	206.366
2523.7	205.52
2526.03	204.915
2528.35	204.985
2530.68	204.337
2533	203.814
2535.32	203.326
2537.64	203.204
2539.96	203.048
2542.28	202.837
2544.6	202.457
2546.92	201.663
2549.24	200.843
2551.55	200.235
2553.87	198.892
2556.18	196.921
2558.49	195.744
2560.81	194.778
2563.12	193.933
2565.43	193.238
2567.74	192.732
2570.05	192.316
2572.36	192.046
2574.67	191.914
2576.97	191.755
2579.28	191.786
2581.59	191.973
2583.89	192.154
2586.19	192.402
2588.5	192.682
2590.8	192.977
2593.1	193.28
2595.4	193.537
2597.7	193.802
2600	193.926
2602.3	193.869
2604.6	193.673
2606.89	193.333
2609.19	193.013
2611.48	192.575
2613.78	192.037
2616.07	191.33
2618.36	190.552
2620.66	189.72
2622.95	188.831
2625.24	187.973
2627.53	187.571
2629.82	187.138
2632.1	186.88
2634.39	187.334
2636.68	186.622
2638.96	185.776
2641.25	185.05
2643.53	184.61
2645.81	184.406
2648.09	184.34
2650.38	184.486
2652.66	184.735
2654.94	185.095
2657.21	185.517
2659.49	185.735
2661.77	185.923
2664.05	185.999
2666.32	185.689
2668.6	184.92
2670.87	183.955
2673.15	182.997
2675.42	182.311
2677.69	181.875
2679.96	181.539
2682.23	181.277
2684.5	180.901
2686.77	180.582
2689.04	180.286
2691.3	180.088
2693.57	179.924
2695.83	180.275
2698.1	180.874
2700.36	181.348
2702.63	181.505
2704.89	181.283
2707.15	180.769
2709.41	179.31
2711.67	177.647
2713.93	176.021
2716.19	175.062
2718.45	174.451
2720.7	174.122
2722.96	174.201
2725.21	174.718
2727.47	175.533
2729.72	176.254
2731.97	176.986
2734.23	177.78
2736.48	178.564
2738.73	179.22
2740.98	179.783
2743.23	179.834
2745.48	179.337
2747.72	178.955
2749.97	178.372
2752.22	177.801
2754.46	177.159
2756.7	176.394
2758.95	175.795
2761.19	175.425
2763.43	175.189
2765.67	175.011
2767.91	174.96
2770.15	174.92
2772.39	174.96
2774.63	175.041
2776.87	174.951
2779.1	174.836
2781.34	174.67
2783.57	174.435
2785.81	174.362
2788.04	174.689
2790.27	175.118
2792.51	175.949
2794.74	177
2796.97	177.06
2799.2	176.909
2801.43	176.708
2803.65	176.921
2805.88	177.213
2808.11	177.396
2810.33	177.452
2812.56	177.457
2814.78	176.592
2817.01	175.607
2819.23	174.562
2821.45	173.519
2823.67	172.555
2825.89	172.041
2828.11	171.723
2830.33	171.435
2832.55	171.257
2834.76	171.096
2836.98	171
2839.2	170.932
2841.41	170.856
2843.63	170.862
2845.84	170.783
2848.05	170.652
2850.26	170.604
2852.48	170.343
2854.69	170.164
2856.89	169.995
2859.1	169.812
2861.31	169.407
2863.52	169.222
2865.73	169.212
2867.93	168.846
2870.14	168.028
2872.34	167.111
2874.54	166.55
2876.75	166.353
2878.95	166.476
2881.15	166.831
2883.35	167.291
2885.55	167.659
2887.75	167.473
2889.95	167.119
2892.14	166.651
2894.34	166.009
2896.54	165.577
2898.73	165.184
2900.93	164.869
2903.12	164.438
2905.31	163.887
2907.5	162.829
2909.7	162.456
2911.89	162.44
2914.08	162.762
2916.27	163.178
2918.45	163.911
2920.64	164.734
2922.83	166.093
2925.01	165.922
2927.2	165.541
2929.38	165.293
2931.57	165.024
2933.75	164.824
2935.93	164.582
2938.12	164.234
2940.3	163.87
2942.48	163.438
2944.66	162.978
2946.84	162.547
2949.01	162.083
2951.19	161.595
2953.37	161.075
2955.54	160.505
2957.72	159.823
2959.89	158.99
2962.06	158.181
2964.24	157.394
2966.41	156.662
2968.58	156.482
2970.75	156.33
2972.92	156.557
2975.09	157.011
2977.26	157.508
2979.43	157.821
2981.59	157.783
2983.76	157.962
2985.92	158.251
2988.09	159.256
2990.25	160.377
2992.42	161.42
2994.58	162.403
2996.74	163.235
2998.9	163.564
3001.06	163.583
3003.22	163.514
3005.38	163.212
3007.54	162.819
3009.69	162.322
3011.85	161.82
3014.01	161.605
3016.16	161.417
3018.31	161.304
3020.47	161.102
3022.62	160.907
3024.77	160.792
3026.92	160.607
3029.07	160.608
3031.22	161.229
3033.37	161.968
3035.52	162.695
3037.67	163.446
3039.82	164.103
3041.96	164.256
3044.11	164.398
3046.25	164.502
3048.4	164.551
3050.54	164.746
3052.68	165.426
3054.82	165.905
3056.97	166.184
3059.11	166.291
3061.25	166.674
3063.38	167.219
3065.52	168.131
3067.66	169.415
3069.8	170.919
3071.93	172.613
3074.07	174.379
3076.2	176.098
3078.34	177.863
3080.47	179.002
3082.6	179.705
3084.73	179.892
3086.86	180.086
3088.99	180.228
3091.12	180.45
3093.25	180.704
3095.38	181.019
3097.51	181.428
3099.64	181.895
3101.76	182.461
3103.89	183.084
3106.01	183.901
3108.13	184.854
3110.26	185.895
3112.38	187.089
3114.5	188.441
3116.62	190.036
3118.74	191.703
3120.86	193.2
3122.98	193.208
3125.1	192.961
3127.22	192.676
3129.33	192.361
3131.45	193.087
3133.56	194.02
3135.68	195.222
3137.79	196.631
3139.91	198.119
3142.02	199.626
3144.13	201.085
3146.24	202.633
3148.35	204.204
3150.46	205.851
3152.57	207.485
3154.68	209.27
3156.78	211.111
3158.89	212.952
3161	215.034
3163.1	217.318
3165.21	219.755
3167.31	222.187
3169.41	224.714
3171.51	227.228
3173.62	229.792
3175.72	231.872
3177.82	233.874
3179.92	235.746
3182.02	237.398
3184.11	238.948
3186.21	240.253
3188.31	241.27
3190.4	242.19
3192.5	242.443
3194.59	242.17
3196.69	242.035
3198.78	242.133
3200.87	242.943
3202.96	243.76
3205.06	244.88
3207.15	245.911
3209.24	246.67
3211.33	245.907
3213.41	244.776
3215.5	243.301
3217.59	241.777
3219.67	240.016
3221.76	238.057
3223.84	235.846
3225.93	233.476
3228.01	231.06
3230.09	228.441
3232.18	225.711
3234.26	222.704
3236.34	222.465
3238.42	219.975
3240.5	216.86
3242.58	213.351
3244.65	209.631
3246.73	206.042
3248.81	202.096
3250.88	198.301
3252.96	194.682
3255.03	191.593
3257.11	189.531
3259.18	187.756
3261.25	186.45
3263.32	185.463
3265.39	185.26
3267.46	185.104
3269.53	184.908
3271.6	184.589
3273.67	183.752
3275.74	182.642
3277.8	181.268
3279.87	179.631
3281.94	177.754
3284	175.65
3286.06	173.253
3288.13	170.731
3290.19	167.884
3292.25	165.109
3294.31	162.875
3296.37	161.307
3298.43	160.423
3300.49	159.785
3302.55	159.668
3304.61	159.859
3306.67	160.178
3308.72	160.593
3310.78	161.024
3312.83	161.48
3314.89	161.863
3316.94	162.352
3319	162.999
3321.05	163.943
3323.1	164.851
3325.15	165.424
3327.2	164.769
3329.25	163.654
3331.3	162.184
3333.35	160.488
3335.39	158.63
3337.44	156.847
3339.49	155.081
3341.53	153.37
3343.58	151.865
3345.62	150.595
3347.67	149.522
3349.71	149.032
3351.75	148.759
3353.79	148.512
3355.83	147.938
3357.87	147.615
3359.91	147.282
3361.95	147
3363.99	146.808
3366.03	146.143
3368.06	145.259
3370.1	144.595
3372.14	144.098
3374.17	143.929
3376.2	143.815
3378.24	143.835
3380.27	144.013
3382.3	144.337
3384.33	145.108
3386.36	146.032
3388.39	146.325
3390.42	145.693
3392.45	144.782
3394.48	143.673
3396.51	142.557
3398.53	141.519
3400.56	140.307
3402.59	139.123
3404.61	138.119
3406.63	136.992
3408.66	136.948
3410.68	137.168
3412.7	137.376
3414.72	137.569
3416.74	137.713
3418.76	137.639
3420.78	137.512
3422.8	137.301
3424.82	136.924
3426.84	136.429
3428.85	135.729
3430.87	135.027
3432.88	134.225
3434.9	133.492
3436.91	132.68
3438.93	131.754
3440.94	130.717
3442.95	129.342
3444.96	128.148
3446.97	126.235
3448.98	125.502
3450.99	125.412
3453	125.332
3455.01	125.216
3457.02	125.175
3459.02	125.23
3461.03	125.582
3463.03	125.913
3465.04	126.119
3467.04	125.263
3469.05	125.657
3471.05	126.216
3473.05	126.798
3475.05	127.263
3477.05	127.45
3479.05	127.584
3481.05	127.724
3483.05	127.845
3485.05	127.937
3487.05	127.721
3489.04	126.235
3491.04	123.742
3493.04	122.043
3495.03	120.991
3497.03	120.467
3499.02	119.939
3501.01	119.8
3503	119.816
3505	121.053
3506.99	121.866
3508.98	122.809
3510.97	123.624
3512.96	124.38
3514.94	125.231
3516.93	126.003
3518.92	126.558
3520.9	126.903
3522.89	126.72
3524.88	125.835
3526.86	124.672
3528.84	123.331
3530.83	121.914
3532.81	120.794
3534.79	119.509
3536.77	118.342
3538.75	117.463
3540.73	116.975
3542.71	116.811
3544.69	117.288
3546.67	118.036
3548.65	119.002
3550.62	120.031
3552.6	121.154
3554.57	122.134
3556.55	123.048
3558.52	124.092
3560.5	124.399
3562.47	124.694
3564.44	124.792
3566.41	124.901
3568.38	124.907
3570.35	124.953
3572.32	125.432
3574.29	125.893
3576.26	126.473
3578.23	127.185
3580.2	127.883
3582.16	129.089
3584.13	130.291
3586.09	131.323
3588.06	131.754
3590.02	131.796
3591.98	131.529
3593.95	131.043
3595.91	130.304
3597.87	129.035
3599.83	127.189
3601.79	125.205
3603.75	123.203
3605.71	121.802
3607.67	120.601
3609.62	119.824
3611.58	119.266
3613.54	118.931
3615.49	118.812
3617.45	118.863
3619.4	118.781
3621.36	118.646
3623.31	118.008
3625.26	116.848
3627.21	115.465
3629.16	114.034
3631.11	112.587
3633.06	110.993
3635.01	109.224
3636.96	107.372
3638.91	105.703
3640.86	104.674
3642.8	103.941
3644.75	103.627
3646.69	103.774
3648.64	104.344
3650.58	105.244
3652.53	106.376
3654.47	107.542
3656.41	108.495
3658.35	109.202
3660.3	109.637
3662.24	109.642
3664.18	109.406
3666.11	108.77
3668.05	107.757
3669.99	106.656
3671.93	105.602
3673.86	105.259
3675.8	105.067
3677.74	105.172
3679.67	105.583
3681.6	105.328
3683.54	104.879
3685.47	104.353
3687.4	103.8
3689.34	103.328
3691.27	102.87
3693.2	102.747
3695.13	102.596
3697.06	102.552
3698.98	102.554
3700.91	102.588
3702.84	102.698
3704.77	102.887
3706.69	103.136
3708.62	103.396
3710.54	103.89
3712.47	104.395
3714.39	104.813
3716.31	104.783
3718.24	104.672
3720.16	104.256
3722.08	103.719
3724	103.191
3725.92	102.701
3727.84	102.454
3729.76	102.641
3731.67	103.098
3733.59	103.617
3735.51	104.114
3737.42	104.182
3739.34	103.946
3741.25	104.328
3743.17	104.817
3745.08	105.414
3747	106.022
3748.91	106.563
3750.82	106.824
3752.73	106.826
3754.64	106.783
3756.55	106.6
3758.46	106.362
3760.37	106.054
3762.28	105.682
3764.19	105.273
3766.09	104.814
3768	104.366
3769.9	103.884
3771.81	103.537
3773.71	103.154
3775.62	102.79
3777.52	102.586
3779.42	102.49
3781.33	102.92
3783.23	103.125
3785.13	103.175
3787.03	103.094
3788.93	102.758
3790.83	101.825
3792.72	100.748
3794.62	99.616
3796.52	98.8477
3798.42	98.0024
3800.31	97.1976
3802.21	96.1645
3804.1	95.2637
3806	94.5395
3807.89	94.6601
3809.78	95.0437
3811.68	95.3668
3813.57	96.2238
3815.46	97.1816
3817.35	98.1409
3819.24	99.0871
3821.13	99.9901
3823.02	100.716
3824.9	101.429
3826.79	101.722
3828.68	101.849
3830.56	101.9
3832.45	101.838
3834.34	101.758
3836.22	101.577
3838.1	101.283
3839.99	101.208
3841.87	101.087
3843.75	101.265
3845.63	101.504
3847.51	101.575
3849.39	101.762
3851.28	101.827
3853.15	101.761
3855.03	101.639
3856.91	101.464
3858.79	101.247
3860.66	100.811
3862.54	100.472
3864.42	100.056
3866.29	99.9424
3868.16	99.8889
3870.04	100.13
3871.91	100.226
3873.78	100.372
3875.66	100.488
3877.53	100.636
3879.4	100.641
3881.27	100.6
3883.14	100.359
3885.01	99.7939
3886.88	99.1383
3888.74	98.3955
3890.61	97.6437
3892.48	96.8297
3894.34	96.0591
3896.21	95.3069
3898.07	94.6868
3899.94	94.1337
3901.8	93.6512
3903.66	93.215
3905.53	92.9158
3907.39	92.674
3909.25	92.5246
3911.11	92.3615
3912.97	92.3519
3914.83	92.3635
3916.69	92.5903
3918.55	92.8558
3920.4	93.1704
3922.26	93.5083
3924.12	93.8905
3925.97	94.2093
3927.83	94.8554
3929.68	94.9007
3931.54	94.827
3933.39	94.5856
3935.24	94.2894
3937.1	94.0544
3938.95	93.7537
3940.8	93.4787
3942.65	93.1983
3944.5	92.9647
3946.35	92.7593
3948.2	92.5626
3950.05	92.5886
3951.9	92.6136
3953.74	92.5883
3955.59	92.5945
3957.44	92.4911
3959.28	92.6073
3961.13	92.7184
3962.97	92.8936
3964.81	93.0602
3966.66	93.2545
3968.5	93.4432
3970.34	93.6389
3972.18	93.8464
3974.02	93.9982
3975.86	93.0539
3977.7	92.5862
3979.54	92.4439
3981.38	92.2338
3983.22	92.1973
3985.06	92.3048
3986.89	92.5937
3988.73	93.0223
3990.56	93.2405
3992.4	93.0802
3994.23	92.9969
3996.07	93.6013
3997.9	94.9933
3999.73	97.3848
