#Acq. time (s)=	10
#Accumulations=	2
#Range (cm-¹)=	100...4000
#Windows=	1
#Auto scanning=	Off
#Autofocus=	Off
#Macrospot=	Off
#AutoExposure=	Off
#Spike filter=	Multiple accum.
#Delay time (s)=	1
#Binning=	1
#Readout mode=	Signal
#DeNoise=	Standard
#ICS correction=	On
#Dark correction=	Off
#Inst. Process=	Off
#Detector Gain=	Best Dynamic
#Detector ADC=	50 kHz HS
#Detector temperature (°C)=	-60.09
#Instrument=	LabRAM HR Evol
#Detector=	SIN-EM FIVIS
#Objective=	x50_VIS_LWD
#Grating=	150 (500nm)
#ND Filter=	50%
#Laser=	633nm_Edge
#Hole=	100.021
#Temperature=	0
#Range=	Visible
#StageXY=	75x50mm Scan+
#StageZ=	Z motor
#X (µm)=	0
#Y (µm)=	0
#Z (µm)=	-149.4
#Full time(s)=	25
#Project=	20_10_20
#Sample=	BU18FA02a
#Site=	
#Title=	BU02a-Area1-top-opaq_150 (500nm)_633nm_Edge_50%_x50_VIS_LWD_H100um_10sX2
#Remark=	
#Date=	20.10.2020 16:54
#Acquired=	20.10.2020 16:54:56
100.676	2327.56
103.935	2384.73
107.192	2418.53
110.449	2452.7
113.703	2471.5
116.957	2487.38
120.208	2495.73
123.459	2487.99
126.708	2487.37
129.957	2500.37
133.203	2522.06
136.449	2618.33
139.692	2769.26
142.935	2734.29
146.176	2472.22
149.416	2319.29
152.654	2235.73
155.892	2196.2
159.127	2185.65
162.363	2207.32
165.595	2240.03
168.826	2293.81
172.058	2376.3
175.286	2474.51
178.515	2586.77
181.74	2718.9
184.966	2861.3
188.19	3004.08
191.411	3159.4
194.633	3307.53
197.852	3446.81
201.072	3596.13
204.288	3738.31
207.503	3870.67
210.719	3990.07
213.931	4101.36
217.142	4187.59
220.354	4276.11
223.562	4353.4
226.77	4417.25
229.977	4465.91
233.181	4482.43
236.386	4483.84
239.588	4466.69
242.789	4436.13
245.988	4377.95
249.188	4304.7
252.384	4218.18
255.58	4118.73
258.775	4010.87
261.968	3906.87
265.159	3803.36
268.351	3701.81
271.54	3602.35
274.727	3503.66
277.913	3417.75
281.1	3340.95
284.283	3274.12
287.466	3201.57
290.648	3157.95
293.828	3123.64
297.006	3096.5
300.183	3080.8
303.359	3072.78
306.535	3075.33
309.708	3082.93
312.88	3100.54
316.05	3121.68
319.221	3146.42
322.389	3174.95
325.556	3203.99
328.721	3225.84
331.885	3256.92
335.049	3286.58
338.211	3319.21
341.371	3343.18
344.53	3374.54
347.688	3407.61
350.844	3436.65
354	3456.21
357.154	3480.57
360.307	3507.76
363.458	3523.52
366.608	3545.02
369.756	3560.92
372.903	3584.29
376.051	3617.42
379.196	3673.21
382.339	3738.5
385.481	3834.16
388.622	3972.46
391.762	4111.42
394.9	4287.69
398.037	4493.77
401.173	4743.82
404.308	5031.73
407.442	5375.37
410.574	5746.32
413.705	6233.16
416.834	6738.1
419.962	7315.9
423.089	7932.82
426.215	8573.2
429.339	9182.96
432.462	9698.03
435.584	10126.6
438.705	10421.6
441.824	10528.9
444.942	10389.1
448.059	9935.16
451.174	9277.33
454.288	8476.29
457.401	7583.88
460.513	6732.56
463.623	5975.95
466.732	5337.66
469.84	4805.3
472.947	4382.09
476.052	4036.09
479.156	3760.36
482.259	3539.48
485.361	3323.57
488.461	3192.2
491.56	3084.64
494.658	3002.86
497.755	2929.98
500.848	2873.98
503.942	2825.71
507.035	2784.7
510.127	2760.83
513.217	2731.2
516.306	2707.55
519.394	2688.65
522.481	2662.35
525.566	2648.33
528.65	2648.32
531.731	2639.11
534.813	2636.77
537.893	2634.72
540.972	2643.31
544.05	2665.93
547.127	2693.76
550.202	2735.85
553.275	2791.6
556.348	2858.3
559.42	2941.73
562.49	3044.98
565.559	3165.63
568.626	3302.42
571.693	3450.92
574.758	3655.12
577.822	3836.97
580.885	4050.57
583.946	4289.91
587.006	4558.67
590.065	4841.55
593.124	5154.61
596.18	5472.96
599.235	5828.76
602.289	6154.64
605.342	6415.26
608.394	6583.63
611.444	6600.8
614.493	6500.89
617.541	6291.25
620.588	5975.93
623.633	5576.76
626.677	5126.82
629.721	4672.09
632.762	4239.64
635.803	3882.69
638.842	3570.53
641.879	3280.12
644.917	3081.89
647.953	2904.6
650.988	2732.32
654.02	2610.02
657.052	2502.64
660.083	2415.49
663.112	2345.43
666.141	2289.39
669.167	2247.57
672.193	2187.45
675.219	2146.96
678.241	2100.55
681.264	2055.6
684.285	2025.48
687.304	2004.03
690.324	1995.93
693.34	1962.86
696.357	1928.58
699.372	1884.34
702.385	1832.32
705.398	1780.72
708.409	1726.42
711.419	1674.31
714.428	1627.47
717.436	1582.42
720.443	1538.51
723.448	1491.36
726.452	1447.86
729.454	1408.35
732.457	1369.26
735.456	1332.8
738.456	1299.29
741.454	1270.36
744.451	1243.26
747.446	1214.31
750.441	1186.58
753.434	1162.38
756.427	1141.4
759.417	1122.27
762.407	1104.92
765.395	1089.73
768.383	1076.5
771.368	1063.53
774.354	1051.82
777.337	1040.82
780.32	1030.71
783.301	1021.74
786.282	1014.55
789.26	1008.72
792.237	1004.26
795.215	1000.32
798.19	997.611
801.165	994.669
804.137	991.279
807.108	987.497
810.08	982.991
813.049	979.105
816.018	974.842
818.984	968.309
821.95	960.473
824.915	951.252
827.878	940.815
830.84	927.918
833.802	917.047
836.762	898.889
839.721	878.364
842.679	854.883
845.635	829.579
848.591	802.501
851.544	773.324
854.497	744.239
857.448	715.617
860.4	685.211
863.349	656.927
866.297	630.149
869.245	607.534
872.19	586.555
875.135	568.071
878.079	556.237
881.021	544
883.962	533.769
886.902	523.731
889.842	516.47
892.779	509.466
895.715	503.495
898.65	497.893
901.586	492.501
904.518	487.119
907.45	481.662
910.38	475.492
913.31	468.752
916.239	463.341
919.166	458.62
922.092	454.087
925.017	449.756
927.94	445.458
930.864	441.432
933.785	437.505
936.706	433.728
939.625	429.727
942.542	425.676
945.459	421.606
948.376	417.951
951.29	413.513
954.203	408.447
957.116	403.997
960.027	399.643
962.936	395.329
965.845	390.932
968.753	386.41
971.66	381.901
974.566	377.245
977.47	372.321
980.373	367.426
983.274	362.908
986.175	359.314
989.075	355.735
991.973	352.342
994.87	349.001
997.767	345.712
1000.66	342.425
1003.56	339.221
1006.45	335.944
1009.34	332.723
1012.23	329.65
1015.12	327.007
1018.01	324.785
1020.9	322.555
1023.78	320.026
1026.67	316.716
1029.55	313.557
1032.43	310.184
1035.31	306.685
1038.19	303.369
1041.07	300.585
1043.95	298.382
1046.83	296.475
1049.7	294.878
1052.58	293.397
1055.45	291.482
1058.33	289.715
1061.2	288.27
1064.07	286.719
1066.94	285.266
1069.8	284.393
1072.67	282.879
1075.54	280.926
1078.4	278.505
1081.26	276.213
1084.13	273.869
1086.99	271.655
1089.85	269.338
1092.71	267.14
1095.57	265.119
1098.42	263.373
1101.28	262.093
1104.13	261.04
1106.98	260.32
1109.84	259.827
1112.69	259.636
1115.54	259.751
1118.39	260.185
1121.23	260.906
1124.08	262.126
1126.93	263.137
1129.77	263.198
1132.62	262.962
1135.46	262.576
1138.3	261.88
1141.14	261.086
1143.98	260.292
1146.82	259.585
1149.65	258.991
1152.49	258.527
1155.32	258.276
1158.16	258.089
1160.99	257.966
1163.82	257.419
1166.65	256.888
1169.48	256.38
1172.31	256.15
1175.13	255.993
1177.96	255.755
1180.78	255.281
1183.61	254.095
1186.43	252.749
1189.25	251.675
1192.07	250.605
1194.89	249.488
1197.71	248.387
1200.53	247.373
1203.34	246.069
1206.16	245.306
1208.97	244.908
1211.78	244.835
1214.59	245.01
1217.4	245.78
1220.21	246.611
1223.02	247.168
1225.83	247.569
1228.63	247.832
1231.44	247.997
1234.24	248.016
1237.05	248.147
1239.85	248.212
1242.65	247.749
1245.45	246.97
1248.25	245.967
1251.04	244.895
1253.84	243.735
1256.63	242.632
1259.43	241.709
1262.22	241.184
1265.01	241.184
1267.8	241.362
1270.59	241.633
1273.38	242.134
1276.17	242.084
1278.96	241.743
1281.74	241.391
1284.53	241.918
1287.31	242.49
1290.09	242.829
1292.87	243.075
1295.65	243.042
1298.43	242.92
1301.21	242.779
1303.99	242.612
1306.76	241.945
1309.54	241.161
1312.31	240.284
1315.08	239.233
1317.85	238.133
1320.63	237.062
1323.4	236.149
1326.16	235.799
1328.93	234.791
1331.7	233.652
1334.46	232.563
1337.23	231.67
1339.99	230.95
1342.75	230.459
1345.51	230.36
1348.27	230.602
1351.03	230.959
1353.79	231.199
1356.55	231.047
1359.3	230.863
1362.05	230.675
1364.81	230.82
1367.56	231.056
1370.31	231.349
1373.06	231.655
1375.81	231.768
1378.56	231.407
1381.31	230.483
1384.05	229.291
1386.8	227.918
1389.54	226.546
1392.29	225.035
1395.03	223.405
1397.77	221.663
1400.51	219.876
1403.25	217.777
1405.98	212.943
1408.72	214.018
1411.46	215.929
1414.19	219.296
1416.92	218.957
1419.66	218.992
1422.39	219.546
1425.12	220.755
1427.85	222.626
1430.58	222.982
1433.3	222.935
1436.03	222.051
1438.75	221.574
1441.48	221.318
1444.2	221.476
1446.92	222.205
1449.64	222.753
1452.36	223.847
1455.08	225.014
1457.8	226.408
1460.52	227.82
1463.23	229.086
1465.95	230.177
1468.66	230.878
1471.37	231.451
1474.09	231.789
1476.8	232.004
1479.51	231.8
1482.21	232.246
1484.92	232.464
1487.63	232.806
1490.33	232.933
1493.04	232.863
1495.74	232.753
1498.44	232.723
1501.14	232.855
1503.85	233.212
1506.54	233.669
1509.24	234.096
1511.94	234.531
1514.64	234.72
1517.33	234.68
1520.03	234.621
1522.72	234.696
1525.41	235.693
1528.1	236.727
1530.79	237.275
1533.48	237.659
1536.17	237.939
1538.86	238.105
1541.54	238.221
1544.23	238.265
1546.91	238.317
1549.59	238.37
1552.28	238.465
1554.96	238.792
1557.64	238.909
1560.32	238.655
1562.99	238.404
1565.67	238.256
1568.35	238.14
1571.02	238.251
1573.69	238.556
1576.37	238.969
1579.04	239.407
1581.71	239.648
1584.38	239.926
1587.05	240.224
1589.72	240.309
1592.38	240.933
1595.05	239.858
1597.71	239.147
1600.38	240.906
1603.04	244.208
1605.7	251.731
1608.36	253.261
1611.02	241.31
1613.68	228.079
1616.34	230.129
1618.99	231.088
1621.65	228.789
1624.3	227.798
1626.96	228.859
1629.61	229.223
1632.26	229.082
1634.91	228.307
1637.56	226.818
1640.21	224.883
1642.86	221.292
1645.51	219.085
1648.15	217.626
1650.8	215.292
1653.44	212.543
1656.08	210.035
1658.72	208.015
1661.36	206.043
1664	204.009
1666.64	201.835
1669.28	199.761
1671.92	197.813
1674.55	196.151
1677.19	194.882
1679.82	193.847
1682.45	192.676
1685.09	191.325
1687.72	190.328
1690.35	189.635
1692.98	188.911
1695.6	188.112
1698.23	187.284
1700.86	186.332
1703.48	185.347
1706.1	184.271
1708.73	183.164
1711.35	181.945
1713.97	180.791
1716.59	179.576
1719.21	178.399
1721.83	177.316
1724.44	176.347
1727.06	175.422
1729.67	174.786
1732.29	174.305
1734.9	173.984
1737.51	173.852
1740.12	173.882
1742.74	174.052
1745.34	174.313
1747.95	174.443
1750.56	174.449
1753.17	174.034
1755.77	173.419
1758.38	172.605
1760.98	171.525
1763.58	170.407
1766.18	169.37
1768.78	168.453
1771.38	167.705
1773.98	167.207
1776.58	166.653
1779.18	166.267
1781.77	166.1
1784.37	166.371
1786.96	166.84
1789.55	167.465
1792.14	168.207
1794.73	169.133
1797.32	169.876
1799.91	170.48
1802.5	170.853
1805.09	171.139
1807.67	171.351
1810.26	171.496
1812.84	171.643
1815.43	171.755
1818.01	171.719
1820.59	171.494
1823.17	170.889
1825.75	170.19
1828.33	169.323
1830.9	168.354
1833.48	167.344
1836.05	166.341
1838.63	165.363
1841.2	164.437
1843.77	163.601
1846.35	162.821
1848.92	161.99
1851.49	160.603
1854.06	160.324
1856.62	159.961
1859.19	160.273
1861.75	161.025
1864.32	162.149
1866.88	163.641
1869.45	165.365
1872.01	167.039
1874.57	168.409
1877.13	169.461
1879.69	170.21
1882.25	170.244
1884.8	168.672
1887.36	168.053
1889.92	167.64
1892.47	167.378
1895.02	167.175
1897.58	167.045
1900.13	166.994
1902.68	167.105
1905.23	167.358
1907.78	167.198
1910.33	167.158
1912.87	167.186
1915.42	167.415
1917.96	167.619
1920.51	167.54
1923.05	166.953
1925.59	166.172
1928.13	165.277
1930.67	164.13
1933.21	163.16
1935.75	162.408
1938.29	162.218
1940.82	162.137
1943.36	162.146
1945.9	162.2
1948.43	162.226
1950.96	162.297
1953.49	162.329
1956.02	162.371
1958.55	162.366
1961.08	162.386
1963.61	162.383
1966.14	162.372
1968.66	162.339
1971.19	162.256
1973.71	162.133
1976.24	161.995
1978.76	161.808
1981.28	161.513
1983.8	161.181
1986.32	160.862
1988.84	161.4
1991.36	162.127
1993.88	162.877
1996.39	163.625
1998.91	164.29
2001.42	164.836
2003.94	165.265
2006.45	165.611
2008.96	165.826
2011.47	165.975
2013.98	166.048
2016.49	165.983
2019	165.816
2021.5	165.601
2024.01	165.341
2026.51	165.016
2029.02	164.683
2031.52	164.708
2034.02	164.717
2036.52	164.11
2039.02	162.608
2041.52	161.28
2044.02	159.868
2046.52	158.596
2049.02	157.652
2051.51	157.183
2054.01	157.483
2056.5	157.707
2058.99	157.949
2061.49	158.206
2063.98	158.633
2066.47	159.039
2068.96	159.438
2071.45	159.801
2073.93	159.991
2076.42	159.931
2078.91	159.868
2081.39	159.805
2083.88	159.835
2086.36	159.749
2088.84	159.567
2091.32	159.438
2093.8	159.378
2096.28	159.352
2098.76	159.314
2101.24	159.397
2103.72	159.737
2106.19	160.094
2108.67	160.193
2111.14	160.003
2113.61	159.364
2116.09	158.574
2118.56	157.886
2121.03	157.422
2123.5	157.172
2125.97	157.166
2128.43	157.551
2130.9	158.097
2133.37	158.538
2135.83	159.126
2138.3	159.618
2140.76	159.886
2143.22	159.641
2145.68	159.299
2148.14	158.874
2150.6	159.102
2153.06	158.61
2155.52	157.861
2157.98	157.102
2160.43	156.294
2162.89	155.361
2165.34	155.023
2167.8	154.871
2170.25	154.763
2172.7	154.776
2175.15	154.806
2177.6	154.866
2180.05	154.928
2182.5	154.979
2184.95	155.029
2187.39	155.045
2189.84	154.953
2192.28	154.875
2194.73	154.797
2197.17	154.722
2199.61	154.612
2202.05	154.501
2204.49	154.379
2206.93	154.279
2209.37	154.072
2211.81	153.868
2214.24	153.637
2216.68	153.41
2219.11	153.186
2221.55	152.962
2223.98	152.738
2226.41	152.523
2228.84	152.272
2231.27	151.964
2233.7	151.844
2236.13	151.751
2238.56	151.661
2240.99	151.681
2243.41	151.876
2245.84	151.929
2248.26	151.901
2250.69	151.879
2253.11	151.885
2255.53	151.793
2257.95	151.579
2260.37	151.157
2262.79	150.792
2265.21	150.37
2267.63	149.962
2270.04	149.573
2272.46	149.206
2274.87	148.846
2277.29	148.52
2279.7	148.205
2282.11	147.958
2284.52	147.848
2286.93	147.752
2289.34	147.666
2291.75	147.597
2294.16	147.562
2296.57	147.583
2298.97	147.741
2301.38	147.892
2303.78	148.148
2306.19	148.377
2308.59	148.87
2310.99	149.395
2313.39	149.911
2315.79	150.48
2318.19	150.995
2320.59	151.499
2322.99	151.952
2325.38	152.346
2327.78	152.231
2330.17	151.997
2332.57	151.518
2334.96	150.83
2337.35	150.13
2339.74	149.412
2342.13	148.671
2344.52	147.957
2346.91	147.247
2349.3	146.613
2351.69	146.4
2354.07	146.253
2356.46	146.228
2358.84	146.359
2361.23	146.572
2363.61	146.962
2365.99	147.425
2368.37	147.935
2370.75	148.491
2373.13	149.057
2375.51	149.644
2377.89	149.634
2380.27	149.684
2382.64	150.891
2385.02	150.345
2387.39	149.631
2389.77	148.717
2392.14	147.654
2394.51	146.705
2396.88	145.475
2399.25	146.364
2401.62	146.387
2403.99	146.265
2406.36	146.084
2408.72	145.989
2411.09	145.979
2413.46	145.193
2415.82	144.358
2418.18	143.409
2420.55	142.676
2422.91	142.263
2425.27	142.042
2427.63	142.036
2429.99	142.153
2432.35	142.425
2434.7	142.817
2437.06	143.286
2439.42	143.91
2441.77	144.591
2444.12	145.421
2446.48	146.302
2448.83	147.307
2451.18	148.342
2453.53	149.314
2455.88	150.463
2458.23	151.517
2460.58	152.365
2462.93	152.448
2465.27	152.557
2467.62	152.432
2469.97	152.184
2472.31	151.777
2474.65	151.137
2476.99	150.211
2479.34	149.002
2481.68	147.565
2484.02	146.37
2486.36	145.572
2488.69	144.974
2491.03	145.301
2493.37	145.71
2495.7	146.156
2498.04	146.593
2500.37	146.977
2502.71	147.469
2505.04	147.732
2507.37	147.861
2509.7	147.811
2512.03	147.765
2514.36	147.564
2516.69	147.357
2519.02	147.057
2521.34	146.901
2523.67	146.423
2526	145.94
2528.32	145.398
2530.64	144.855
2532.97	144.292
2535.29	143.724
2537.61	143.165
2539.93	142.593
2542.25	142.173
2544.57	141.691
2546.88	141.306
2549.2	140.907
2551.52	140.654
2553.83	140.463
2556.15	140.611
2558.46	140.637
2560.77	140.732
2563.09	140.858
2565.4	141.033
2567.71	141.252
2570.02	141.495
2572.33	142.035
2574.63	142.41
2576.94	142.651
2579.25	142.516
2581.55	142.402
2583.86	142.231
2586.16	142.05
2588.46	141.921
2590.77	141.86
2593.07	141.858
2595.37	141.775
2597.67	141.747
2599.97	141.681
2602.27	141.648
2604.56	141.417
2606.86	141.129
2609.16	140.834
2611.45	140.34
2613.74	139.979
2616.04	140.4
2618.33	140.096
2620.62	139.707
2622.91	138.912
2625.2	138.102
2627.49	137.847
2629.78	137.648
2632.07	137.567
2634.36	137.504
2636.64	137.517
2638.93	137.509
2641.21	137.523
2643.5	137.544
2645.78	137.525
2648.06	137.517
2650.34	137.455
2652.62	137.33
2654.9	137.268
2657.18	137.204
2659.46	137.145
2661.74	137.066
2664.01	137.011
2666.29	136.943
2668.56	136.897
2670.84	136.834
2673.11	136.795
2675.38	136.733
2677.66	136.708
2679.93	136.67
2682.2	136.667
2684.47	136.641
2686.74	136.657
2689	136.664
2691.27	136.692
2693.54	136.707
2695.8	136.731
2698.07	136.751
2700.33	136.723
2702.59	136.711
2704.86	136.666
2707.12	136.582
2709.38	136.496
2711.64	136.388
2713.9	136.245
2716.16	135.945
2718.41	135.501
2720.67	135.645
2722.93	136.313
2725.18	137.209
2727.44	137.972
2729.69	138.3
2731.94	138.537
2734.19	138.616
2736.45	138.614
2738.7	138.521
2740.95	138.421
2743.19	138.324
2745.44	138.115
2747.69	137.908
2749.94	137.648
2752.18	137.379
2754.43	137.096
2756.67	136.803
2758.92	136.545
2761.16	136.238
2763.4	135.961
2765.64	135.667
2767.88	135.396
2770.12	135.124
2772.36	134.815
2774.6	134.524
2776.83	134.232
2779.07	133.973
2781.31	133.706
2783.54	133.488
2785.78	133.28
2788.01	133.066
2790.24	132.886
2792.47	132.545
2794.71	132.462
2796.94	132.397
2799.17	132.38
2801.39	132.355
2803.62	132.381
2805.85	132.463
2808.08	132.536
2810.3	132.624
2812.53	132.912
2814.75	133.058
2816.97	133.1
2819.2	133.16
2821.42	133.205
2823.64	133.248
2825.86	132.954
2828.08	132.882
2830.3	132.792
2832.52	132.627
2834.73	132.546
2836.95	132.497
2839.16	132.506
2841.38	132.445
2843.59	132.487
2845.81	132.493
2848.02	132.549
2850.23	132.574
2852.44	132.807
2854.65	132.899
2856.86	132.975
2859.07	133
2861.28	133.06
2863.49	133.057
2865.69	133.035
2867.9	132.704
2870.1	132.083
2872.31	131.615
2874.51	131.084
2876.71	130.579
2878.92	130.05
2881.12	129.504
2883.32	128.989
2885.52	128.553
2887.72	128.338
2889.91	128.362
2892.11	128.281
2894.31	128.352
2896.5	128.472
2898.7	128.633
2900.89	128.92
2903.09	129.226
2905.28	129.576
2907.47	129.931
2909.66	130.476
2911.86	131
2914.04	131.577
2916.23	132.185
2918.42	132.768
2920.61	133.322
2922.8	133.641
2924.98	133.92
2927.17	134.054
2929.35	133.786
2931.54	133.374
2933.72	132.35
2935.9	131.119
2938.08	129.895
2940.26	128.59
2942.45	127.557
2944.62	126.595
2946.8	125.725
2948.98	125.089
2951.16	124.657
2953.33	124.339
2955.51	124.241
2957.69	124.249
2959.86	124.47
2962.03	124.787
2964.21	125.268
2966.38	125.895
2968.55	126.656
2970.72	127.605
2972.89	128.777
2975.06	130.02
2977.23	131.279
2979.39	131.61
2981.56	131.389
2983.73	127.846
2985.89	126.136
2988.06	125.257
2990.22	124.662
2992.38	124.33
2994.55	124.225
2996.71	124.316
2998.87	124.589
3001.03	124.906
3003.19	125.253
3005.35	125.595
3007.5	125.773
3009.66	125.757
3011.82	125.732
3013.97	125.543
3016.13	125.141
3018.28	124.531
3020.44	123.864
3022.59	123.173
3024.74	122.647
3026.89	122.248
3029.04	122.033
3031.19	122.068
3033.34	122.625
3035.49	123.493
3037.64	125.235
3039.78	125.919
3041.93	126.671
3044.08	126.944
3046.22	126.89
3048.37	126.554
3050.51	126.072
3052.65	125.626
3054.79	125.063
3056.93	124.522
3059.07	123.921
3061.21	123.395
3063.35	122.772
3065.49	122.086
3067.63	121.454
3069.76	121.045
3071.9	121.382
3074.04	121.704
3076.17	121.524
3078.31	121.07
3080.44	120.471
3082.57	119.897
3084.7	119.483
3086.83	118.603
3088.96	117.547
3091.09	116.918
3093.22	116.44
3095.35	116.193
3097.48	116.034
3099.6	116.089
3101.73	116.173
3103.85	116.902
3105.98	117.93
3108.1	120.691
3110.23	122.749
3112.35	122.994
3114.47	122.621
3116.59	121.899
3118.71	120.883
3120.83	119.705
3122.95	118.259
3125.07	116.61
3127.19	114.638
3129.3	112.615
3131.42	111.516
3133.53	114.353
3135.65	115.063
3137.76	115.586
3139.87	116.141
3141.99	116.676
3144.1	117.186
3146.21	117.621
3148.32	118.142
3150.43	118.618
3152.54	119.066
3154.64	119.46
3156.75	119.746
3158.86	119.992
3160.96	120.09
3163.07	119.988
3165.17	119.913
3167.28	119.921
3169.38	119.119
3171.48	117.151
3173.58	116.059
3175.69	115.75
3177.79	114.52
3179.89	113.888
3181.98	114.33
3184.08	115.622
3186.18	116.807
3188.28	117.759
3190.37	118.821
3192.47	119.828
3194.56	119.816
3196.66	119.769
3198.75	118.132
3200.84	116.809
3202.93	115.693
3205.03	115.013
3207.12	114.715
3209.21	114.58
3211.29	114.894
3213.38	114.566
3215.47	114.323
3217.56	114.836
3219.64	115.425
3221.73	116.044
3223.81	116.806
3225.9	117.552
3227.98	118.303
3230.06	118.938
3232.15	119.496
3234.23	119.819
3236.31	119.852
3238.39	119.349
3240.47	116.287
3242.55	115.802
3244.62	115.683
3246.7	116.058
3248.78	116.711
3250.85	117.574
3252.93	116.745
3255	114.851
3257.08	113.561
3259.15	112.733
3261.22	112.464
3263.29	112.851
3265.36	114.37
3267.43	115.421
3269.5	115.654
3271.57	115.683
3273.64	114.235
3275.71	113.824
3277.78	113.358
3279.84	112.899
3281.91	112.387
3283.97	111.895
3286.03	111.21
3288.1	110.529
3290.16	109.795
3292.22	109.71
3294.28	109.868
3296.34	110.219
3298.4	110.369
3300.46	110.39
3302.52	110.423
3304.58	110.249
3306.64	110.129
3308.69	110.116
3310.75	110.12
3312.8	110.156
3314.86	110.185
3316.91	110.233
3318.97	110.262
3321.02	110.308
3323.07	110.355
3325.12	110.39
3327.17	110.405
3329.22	110.409
3331.27	110.396
3333.32	110.38
3335.37	110.339
3337.41	110.287
3339.46	110.206
3341.5	110.115
3343.55	110.007
3345.59	109.889
3347.64	109.739
3349.68	109.598
3351.72	109.456
3353.76	109.327
3355.8	109.158
3357.84	109.073
3359.88	108.784
3361.92	108.45
3363.96	108.124
3366	107.775
3368.03	107.412
3370.07	107.04
3372.1	106.685
3374.14	106.335
3376.17	105.992
3378.21	105.677
3380.24	105.37
3382.27	105.123
3384.3	105.38
3386.33	105.513
3388.36	105.731
3390.39	106.036
3392.42	106.415
3394.45	106.817
3396.48	107.328
3398.5	107.869
3400.53	108.487
3402.56	109.087
3404.58	109.641
3406.6	109.598
3408.63	109.52
3410.65	109.227
3412.67	108.73
3414.69	108.117
3416.71	107.429
3418.73	106.651
3420.75	105.999
3422.77	105.537
3424.79	105.016
3426.81	104.343
3428.82	102.95
3430.84	102.051
3432.86	101.594
3434.87	101.496
3436.88	101.665
3438.9	102.135
3440.91	103.137
3442.92	104.196
3444.93	104.903
3446.94	105.523
3448.95	105.952
3450.96	106.244
3452.97	106.426
3454.98	106.344
3456.99	105.734
3458.99	104.249
3461	104.436
3463.01	104.822
3465.01	104.987
3467.01	105.156
3469.02	105.325
3471.02	105.353
3473.02	105.244
3475.02	105.157
3477.02	104.966
3479.02	104.789
3481.02	104.572
3483.02	104.359
3485.02	104.164
3487.02	103.97
3489.02	103.767
3491.01	103.572
3493.01	103.346
3495	103.125
3497	102.917
3498.99	102.708
3500.98	102.583
3502.97	102.449
3504.97	102.431
3506.96	102.49
3508.95	102.733
3510.94	102.967
3512.93	103.222
3514.91	103.535
3516.9	103.769
3518.89	104.038
3520.88	104.519
3522.86	105.156
3524.85	105.744
3526.83	105.766
3528.81	105.549
3530.8	105.069
3532.78	104.309
3534.76	103.549
3536.74	102.771
3538.72	102.011
3540.7	101.33
3542.68	100.764
3544.66	100.262
3546.64	99.9454
3548.62	99.6738
3550.59	99.612
3552.57	99.6632
3554.55	99.7219
3556.52	100.125
3558.49	100.651
3560.47	101.198
3562.44	101.776
3564.41	101.505
3566.38	101.145
3568.35	100.653
3570.32	100.169
3572.29	99.9638
3574.26	99.6607
3576.23	99.4344
3578.2	99.3097
3580.17	98.7265
3582.13	98.0504
3584.1	97.1648
3586.06	96.3344
3588.03	95.8285
3589.99	95.4015
3591.96	95.2242
3593.92	95.0813
3595.88	95.1046
3597.84	95.2528
3599.8	95.3629
3601.76	96.0488
3603.72	96.8423
3605.68	97.7604
3607.64	98.5735
3609.6	99.249
3611.55	99.5617
3613.51	99.517
3615.46	99.3613
3617.42	99.0563
3619.37	98.7496
3621.33	98.3955
3623.28	98.0588
3625.23	97.9839
3627.18	97.9815
3629.13	98.0318
3631.09	98.2934
3633.04	98.5938
3634.98	99.077
3636.93	99.7235
3638.88	100.551
3640.83	101.654
3642.77	102.743
3644.72	103.36
3646.67	103.059
3648.61	102.599
3650.56	101.99
3652.5	101.249
3654.44	100.564
3656.38	100.232
3658.33	99.9276
3660.27	99.6293
3662.21	99.4113
3664.15	99.1445
3666.09	98.9538
3668.02	98.6704
3669.96	98.386
3671.9	98.0417
3673.84	97.629
3675.77	97.2088
3677.71	96.6016
3679.64	96.0028
3681.58	95.4019
3683.51	94.8087
3685.44	94.0781
3687.38	93.3825
3689.31	92.7229
3691.24	92.1869
3693.17	91.7985
3695.1	92.3916
3697.03	92.8988
3698.96	93.6247
3700.88	93.8688
3702.81	93.7915
3704.74	93.5377
3706.66	93.1664
3708.59	92.9263
3710.51	92.6499
3712.44	92.4303
3714.36	92.2083
3716.28	92.0607
3718.21	91.9508
3720.13	91.8672
3722.05	91.7018
3723.97	91.5965
3725.89	91.4731
3727.81	91.8317
3729.73	92.836
3731.65	93.6167
3733.56	94.0156
3735.48	94.145
3737.4	94.1152
3739.31	93.8938
3741.23	93.7242
3743.14	93.8246
3745.05	93.8875
3746.97	94.9847
3748.88	95.7644
3750.79	95.8502
3752.7	96.1982
3754.61	96.8149
3756.52	97.4817
3758.43	98.1302
3760.34	98.8069
3762.25	99.3958
3764.16	99.5521
3766.06	99.1084
3767.97	97.9394
3769.88	96.6114
3771.78	95.2558
3773.69	93.8398
3775.59	92.6455
3777.49	91.4658
3779.4	90.4255
3781.3	89.5767
3783.2	88.8397
3785.1	88.344
3787	88.0114
3788.9	87.9496
3790.8	87.9691
3792.7	88.0841
3794.59	88.3509
3796.49	88.6527
3798.39	89.058
3800.28	89.5149
3802.18	90.0294
3804.07	90.451
3805.97	90.8935
3807.86	91.3244
3809.76	91.7196
3811.65	92.1164
3813.54	92.2748
3815.43	92.3949
3817.32	92.4682
3819.21	92.5049
3821.1	92.5504
3822.99	92.4881
3824.88	92.4079
3826.76	92.3559
3828.65	92.3029
3830.54	92.3138
3832.42	92.2903
3834.31	92.2932
3836.19	92.524
3838.08	92.7486
3839.96	92.9015
3841.84	92.481
3843.72	91.5912
3845.61	91.8103
3847.49	92.0773
3849.37	92.5244
3851.25	93.3299
3853.13	93.9459
3855	93.9323
3856.88	93.8396
3858.76	93.2634
3860.64	92.3441
3862.51	90.5021
3864.39	88.8951
3866.26	87.7649
3868.14	86.9846
3870.01	86.2914
3871.88	85.8981
3873.76	86.0997
3875.63	86.5505
3877.5	87.1281
3879.37	87.8616
3881.24	88.3939
3883.11	89.0471
3884.98	89.7173
3886.85	90.3109
3888.72	90.8231
3890.58	91.3288
3892.45	91.6174
3894.31	91.8614
3896.18	90.6425
3898.05	89.4556
3899.91	88.7356
3901.77	87.7304
3903.64	86.7249
3905.5	85.8788
3907.36	85.2696
3909.22	84.9189
3911.08	84.8177
3912.94	84.8646
3914.8	85.0447
3916.66	85.3099
3918.52	85.7286
3920.38	86.0916
3922.23	86.4836
3924.09	86.6466
3925.95	86.8756
3927.8	86.6909
3929.66	86.5475
3931.51	85.8084
3933.36	84.8259
3935.22	84.0661
3937.07	83.3277
3938.92	82.7104
3940.77	82.2251
3942.62	82.1236
3944.47	82.0696
3946.32	82.0947
3948.17	82.2717
3950.02	82.4626
3951.87	82.9435
3953.72	83.4134
3955.56	83.9263
3957.41	84.4028
3959.25	84.8646
3961.1	85.261
3962.94	85.4316
3964.79	85.2777
3966.63	84.9766
3968.47	84.7708
3970.31	84.5358
3972.16	84.2838
3974	84.0471
3975.84	83.8014
3977.68	83.5933
3979.51	83.409
3981.35	83.2843
3983.19	83.3424
3985.03	83.6078
3986.87	83.9461
3988.7	84.219
3990.54	84.3848
3992.37	84.4602
3994.21	83.5794
3996.04	82.4464
3997.87	80.925
3999.71	78.6907
