#Acq. time (s)=	15
#Accumulations=	2
#Range (cm-¹)=	100...4000
#Windows=	1
#Auto scanning=	Off
#Autofocus=	Off
#Macrospot=	Off
#AutoExposure=	Off
#Spike filter=	Multiple accum.
#Delay time (s)=	1
#Binning=	1
#Readout mode=	Signal
#DeNoise=	Standard
#ICS correction=	On
#Dark correction=	Off
#Inst. Process=	Off
#Detector Gain=	Best Dynamic
#Detector ADC=	50 kHz HS
#Detector temperature (°C)=	-60.09
#Instrument=	LabRAM HR Evol
#Detector=	SIN-EM FIVIS
#Objective=	x100_VIS
#Grating=	150 (500nm)
#ND Filter=	25%
#Laser=	633nm_Edge
#Hole=	100.021
#Temperature=	0
#Range=	Visible
#StageXY=	75x50mm Scan+
#StageZ=	Z motor
#X (µm)=	0
#Y (µm)=	0
#Z (µm)=	-13.9
#Full time(s)=	34
#Project=	20_10_20
#Sample=	BU19w
#Site=	
#Title=	BU19w-Area6-ore_150 (500nm)_633nm_Edge_25%_x100_VIS_H100um_15sX2
#Remark=	
#Date=	20.10.2020 17:31
#Acquired=	20.10.2020 17:31:40
100.676	1010.17
103.935	1009.61
107.192	1006.79
110.449	1005.78
113.703	1007.71
116.957	1004.39
120.208	999.978
123.459	993.419
126.708	996.178
129.957	1000.82
133.203	1018.36
136.449	998.817
139.692	975.197
142.935	925.799
146.176	886.267
149.416	847.593
152.654	819.451
155.892	807.857
159.127	795.935
162.363	790.031
165.595	787.065
168.826	785.833
172.058	788.467
175.286	788.356
178.515	797.541
181.74	810.521
184.966	819.245
188.19	828.403
191.411	837.238
194.633	845.875
197.852	854.151
201.072	859.669
204.288	864.268
207.503	860.56
210.719	867.724
213.931	876.435
217.142	890.465
220.354	903.568
223.562	916.572
226.77	928.809
229.977	940.708
233.181	951.275
236.386	959.091
239.588	962.39
242.789	960.682
245.988	959.258
249.188	953.365
252.384	947.798
255.58	940.497
258.775	933.054
261.968	925.612
265.159	918.616
268.351	912.012
271.54	905.637
274.727	899.746
277.913	893.604
281.1	889.855
284.283	886.548
287.466	885.405
290.648	884.705
293.828	883.967
297.006	882.595
300.183	880.603
303.359	878.152
306.535	875.061
309.708	871.535
312.88	865.966
316.05	860.117
319.221	854.385
322.389	849.831
325.556	845.997
328.721	842.756
331.885	840.311
335.049	838.665
338.211	837.569
341.371	837.262
344.53	837.768
347.688	839.146
350.844	841.691
354	845.916
357.154	851.267
360.307	857.679
363.458	866.665
366.608	877.449
369.756	890.494
372.903	906.154
376.051	924.094
379.196	945.121
382.339	969.367
385.481	997.787
388.622	1028.32
391.762	1056.69
394.9	1096.78
398.037	1139
401.173	1182.84
404.308	1225.51
407.442	1267.01
410.574	1307.93
413.705	1343.92
416.834	1375.82
419.962	1402.06
423.089	1410
426.215	1415.46
429.339	1413.66
432.462	1410.8
435.584	1401.04
438.705	1375.92
441.824	1347.41
444.942	1314.84
448.059	1279.03
451.174	1240.17
454.288	1202.51
457.401	1160.93
460.513	1124.01
463.623	1094.94
466.732	1069.85
469.84	1049.12
472.947	1033.6
476.052	1015.73
479.156	1001.47
482.259	987.618
485.361	974.673
488.461	963.318
491.56	953.655
494.658	952.722
497.755	942.822
500.848	932.573
503.942	922.184
507.035	911.684
510.127	901.318
513.217	890.409
516.306	880.251
519.394	873.403
522.481	869.034
525.566	867.639
528.65	869.084
531.731	876.666
534.813	884.437
537.893	893.981
540.972	905.495
544.05	919.216
547.127	935.152
550.202	953.093
553.275	973.087
556.348	995.399
559.42	1019.74
562.49	1049.33
565.559	1081.93
568.626	1116.18
571.693	1152.99
574.758	1192.53
577.822	1235.41
580.885	1281.11
583.946	1329.72
587.006	1381.27
590.065	1431.65
593.124	1489.74
596.18	1550.08
599.235	1619.71
602.289	1686.4
605.342	1745.68
608.394	1803.95
611.444	1851.55
614.493	1886.93
617.541	1908.48
620.588	1903.62
623.633	1859.35
626.677	1817.7
629.721	1753.1
632.762	1679.76
635.803	1596.49
638.842	1533.12
641.879	1453.7
644.917	1411.33
647.953	1376.81
650.988	1340.41
654.02	1305.29
657.052	1264.87
660.083	1224.76
663.112	1187.06
666.141	1145.29
669.167	1105.14
672.193	1060.1
675.219	1022.44
678.241	987.576
681.264	956.04
684.285	926.881
687.304	904.472
690.324	884.108
693.34	865.092
696.357	847.157
699.372	829.169
702.385	808.354
705.398	790.479
708.409	773.961
711.419	758.52
714.428	743.927
717.436	730.134
720.443	717.435
723.448	705.778
726.452	695.02
729.454	685.214
732.457	676.354
735.456	668.347
738.456	661.374
741.454	655.514
744.451	650.542
747.446	646.545
750.441	643.365
753.434	640.594
756.427	637.503
759.417	636.483
762.407	636.98
765.395	638.404
768.383	640.708
771.368	643.615
774.354	646.91
777.337	651.097
780.32	655.652
783.301	659.878
786.282	662.998
789.26	666.263
792.237	669.526
795.215	672.801
798.19	675.494
801.165	676.451
804.137	678.666
807.108	681.893
810.08	685.412
813.049	688.128
816.018	689.495
818.984	688.386
821.95	688.424
824.915	685.322
827.878	684.245
830.84	682.931
833.802	680.202
836.762	675.825
839.721	671.026
842.679	657.579
845.635	641.575
848.591	619.894
851.544	597.799
854.497	575.034
857.448	551.356
860.4	527.604
863.349	508.111
866.297	488.636
869.245	466.305
872.19	449.194
875.135	434.671
878.079	421.461
881.021	411.132
883.962	401.767
886.902	393.197
889.842	385.369
892.779	378.312
895.715	372.577
898.65	367.578
901.586	363.224
904.518	359.141
907.45	355.544
910.38	351.677
913.31	348.334
916.239	345.303
919.166	343.259
922.092	341.555
925.017	340.39
927.94	339.364
930.864	338.2
933.785	336.546
936.706	335.029
939.625	333.661
942.542	332.57
945.459	331.527
948.376	330.894
951.29	330.812
954.203	330.732
957.116	330.689
960.027	330.239
962.936	329.278
965.845	327.893
968.753	326.338
971.66	324.51
974.566	322.599
977.47	320.69
980.373	318.702
983.274	316.574
986.175	314.406
989.075	312.252
991.973	310.089
994.87	308.068
997.767	306.141
1000.66	304.286
1003.56	302.601
1006.45	300.939
1009.34	299.443
1012.23	298.105
1015.12	296.579
1018.01	295.242
1020.9	294.14
1023.78	293.482
1026.67	294.286
1029.55	295.585
1032.43	296.849
1035.31	297.535
1038.19	297.366
1041.07	295.538
1043.95	293.056
1046.83	291.265
1049.7	289.295
1052.58	287.556
1055.45	285.92
1058.33	284.468
1061.2	283.219
1064.07	282.238
1066.94	281.603
1069.8	281.361
1072.67	281.557
1075.54	282.207
1078.4	283.039
1081.26	283.796
1084.13	284.251
1086.99	284.433
1089.85	284.376
1092.71	284.194
1095.57	282.979
1098.42	281.739
1101.28	280.4
1104.13	279.113
1106.98	277.937
1109.84	277.368
1112.69	277.217
1115.54	277.102
1118.39	277.413
1121.23	278.006
1124.08	278.861
1126.93	279.866
1129.77	280.861
1132.62	281.892
1135.46	282.713
1138.3	283.434
1141.14	284.03
1143.98	284.528
1146.82	284.633
1149.65	284.706
1152.49	284.48
1155.32	284.109
1158.16	283.596
1160.99	282.924
1163.82	281.86
1166.65	280.765
1169.48	279.567
1172.31	278.303
1175.13	277.194
1177.96	276.472
1180.78	276.22
1183.61	276.271
1186.43	276.669
1189.25	277.173
1192.07	277.775
1194.89	278.383
1197.71	278.702
1200.53	279.049
1203.34	279.043
1206.16	279.05
1208.97	278.79
1211.78	278.289
1214.59	277.635
1217.4	276.736
1220.21	275.746
1223.02	274.806
1225.83	273.948
1228.63	273.385
1231.44	274.046
1234.24	274.906
1237.05	275.903
1239.85	276.881
1242.65	277.571
1245.45	278.215
1248.25	278.851
1251.04	279.433
1253.84	279.967
1256.63	280.457
1259.43	281.064
1262.22	281.273
1265.01	281.375
1267.8	281.442
1270.59	281.418
1273.38	281.402
1276.17	281.415
1278.96	281.337
1281.74	281.323
1284.53	281.546
1287.31	281.91
1290.09	282.141
1292.87	282.341
1295.65	282.472
1298.43	282.54
1301.21	282.546
1303.99	282.414
1306.76	282.205
1309.54	281.539
1312.31	280.79
1315.08	279.753
1317.85	278.47
1320.63	277.085
1323.4	275.715
1326.16	274.385
1328.93	273.215
1331.7	272.878
1334.46	272.526
1337.23	272.911
1339.99	273.589
1342.75	274.428
1345.51	275.316
1348.27	276.143
1351.03	275.781
1353.79	275.103
1356.55	273.133
1359.3	272.103
1362.05	271.409
1364.81	271.143
1367.56	271.09
1370.31	270.432
1373.06	269.483
1375.81	268.426
1378.56	267.349
1381.31	266.42
1384.05	265.581
1386.8	264.891
1389.54	265.094
1392.29	265.613
1395.03	266.182
1397.77	266.862
1400.51	267.578
1403.25	267.494
1405.98	267.382
1408.72	267.242
1411.46	267.041
1414.19	266.843
1416.92	266.613
1419.66	266.421
1422.39	266.279
1425.12	266.229
1427.85	266.278
1430.58	266.38
1433.3	266.546
1436.03	266.591
1438.75	266.878
1441.48	267.239
1444.2	267.585
1446.92	267.904
1449.64	268.196
1452.36	268.526
1455.08	268.556
1457.8	267.935
1460.52	267.085
1463.23	266.363
1465.95	265.569
1468.66	264.823
1471.37	263.977
1474.09	263.66
1476.8	263.357
1479.51	263.114
1482.21	263.004
1484.92	262.874
1487.63	262.849
1490.33	262.775
1493.04	262.744
1495.74	262.661
1498.44	262.627
1501.14	262.401
1503.85	262.415
1506.54	262.389
1509.24	262.394
1511.94	262.546
1514.64	262.682
1517.33	262.843
1520.03	262.984
1522.72	263.108
1525.41	263.164
1528.1	263.142
1530.79	263.039
1533.48	262.65
1536.17	262.358
1538.86	261.804
1541.54	261.118
1544.23	260.458
1546.91	259.733
1549.59	258.85
1552.28	258.3
1554.96	257.836
1557.64	257.426
1560.32	257.262
1562.99	257.115
1565.67	257.065
1568.35	257.146
1571.02	257.256
1573.69	257.329
1576.37	257.454
1579.04	257.58
1581.71	257.694
1584.38	257.69
1587.05	257.66
1589.72	257.692
1592.38	257.729
1595.05	257.961
1597.71	258.253
1600.38	258.519
1603.04	258.771
1605.7	259.027
1608.36	259.232
1611.02	259.314
1613.68	259.33
1616.34	258.679
1618.99	258.195
1621.65	257.448
1624.3	256.568
1626.96	255.585
1629.61	254.471
1632.26	253.27
1634.91	252.057
1637.56	250.923
1640.21	250.391
1642.86	250.282
1645.51	250.155
1648.15	249.958
1650.8	249.325
1653.44	248.777
1656.08	247.465
1658.72	245.905
1661.36	244.113
1664	242.309
1666.64	240.543
1669.28	239.02
1671.92	237.73
1674.55	236.483
1677.19	235.392
1679.82	234.453
1682.45	233.517
1685.09	233.395
1687.72	233.44
1690.35	233.668
1692.98	233.852
1695.6	234.084
1698.23	234.288
1700.86	234.163
1703.48	234.04
1706.1	233.848
1708.73	233.737
1711.35	233.34
1713.97	233.265
1716.59	233.26
1719.21	233.183
1721.83	233.157
1724.44	233.048
1727.06	232.947
1729.67	232.789
1732.29	232.642
1734.9	232.376
1737.51	232.127
1740.12	231.701
1742.74	231.249
1745.34	230.464
1747.95	229.606
1750.56	228.516
1753.17	227.488
1755.77	226.399
1758.38	225.205
1760.98	224.021
1763.58	222.872
1766.18	221.865
1768.78	221.239
1771.38	221.321
1773.98	221.618
1776.58	222.428
1779.18	223.279
1781.77	224.142
1784.37	224.779
1786.96	225.175
1789.55	225.471
1792.14	225.651
1794.73	225.59
1797.32	224.972
1799.91	224.218
1802.5	223.431
1805.09	222.697
1807.67	222.041
1810.26	221.903
1812.84	221.765
1815.43	221.805
1818.01	222.405
1820.59	222.984
1823.17	223.624
1825.75	224.201
1828.33	224.579
1830.9	224.356
1833.48	223.78
1836.05	222.765
1838.63	221.493
1841.2	219.795
1843.77	218.016
1846.35	216.418
1848.92	215.628
1851.49	215.46
1854.06	215.793
1856.62	216.604
1859.19	217.569
1861.75	218.562
1864.32	219.515
1866.88	220.343
1869.45	221.172
1872.01	221.69
1874.57	222.265
1877.13	222.599
1879.69	222.562
1882.25	222.515
1884.8	222.312
1887.36	222.06
1889.92	221.81
1892.47	221.5
1895.02	221.2
1897.58	220.88
1900.13	220.92
1902.68	221.132
1905.23	221.256
1907.78	221.565
1910.33	221.812
1912.87	222.117
1915.42	222.444
1917.96	222.682
1920.51	222.896
1923.05	223.074
1925.59	222.808
1928.13	222.675
1930.67	222.41
1933.21	222.314
1935.75	222.131
1938.29	221.934
1940.82	221.694
1943.36	221.285
1945.9	220.479
1948.43	218.805
1950.96	217.589
1953.49	216.937
1956.02	216.371
1958.55	216.451
1961.08	216.646
1963.61	217.019
1966.14	217.244
1968.66	216.887
1971.19	214.872
1973.71	214.031
1976.24	214.26
1978.76	216.786
1981.28	217.262
1983.8	217.432
1986.32	217.458
1988.84	217.429
1991.36	217.363
1993.88	217.3
1996.39	217.188
1998.91	217.135
2001.42	217.078
2003.94	217.08
2006.45	217.168
2008.96	217.197
2011.47	217.37
2013.98	217.227
2016.49	216.781
2019	216.742
2021.5	216.82
2024.01	217.458
2026.51	217.783
2029.02	217.9
2031.52	217.895
2034.02	217.401
2036.52	216.937
2039.02	216.344
2041.52	215.796
2044.02	215.252
2046.52	214.726
2049.02	214.24
2051.51	213.858
2054.01	213.773
2056.5	213.592
2058.99	214.007
2061.49	214.555
2063.98	215.173
2066.47	215.743
2068.96	216.391
2071.45	216.923
2073.93	217.068
2076.42	216.926
2078.91	216.712
2081.39	216.459
2083.88	216.087
2086.36	215.469
2088.84	214.763
2091.32	214.006
2093.8	212.968
2096.28	212.513
2098.76	212.115
2101.24	212.23
2103.72	212.21
2106.19	212.152
2108.67	212.124
2111.14	212.081
2113.61	211.983
2116.09	211.864
2118.56	211.752
2121.03	211.552
2123.5	211.372
2125.97	211.184
2128.43	210.94
2130.9	210.738
2133.37	210.492
2135.83	210.256
2138.3	210.034
2140.76	209.796
2143.22	209.5
2145.68	209.541
2148.14	209.62
2150.6	210.229
2153.06	210.605
2155.52	210.982
2157.98	211.368
2160.43	211.75
2162.89	211.842
2165.34	211.895
2167.8	212.271
2170.25	212.716
2172.7	213.101
2175.15	213.472
2177.6	213.789
2180.05	214.256
2182.5	214.292
2184.95	213.686
2187.39	212.986
2189.84	212.291
2192.28	211.526
2194.73	210.76
2197.17	209.971
2199.61	209.265
2202.05	208.545
2204.49	207.931
2206.93	207.283
2209.37	206.657
2211.81	206.346
2214.24	206.112
2216.68	205.962
2219.11	205.839
2221.55	205.801
2223.98	205.802
2226.41	205.811
2228.84	205.857
2231.27	205.929
2233.7	206.069
2236.13	206.067
2238.56	206.073
2240.99	205.751
2243.41	205.42
2245.84	205.166
2248.26	204.834
2250.69	204.333
2253.11	204.081
2255.53	203.937
2257.95	203.797
2260.37	203.706
2262.79	204.012
2265.21	204.072
2267.63	204.089
2270.04	203.778
2272.46	203.432
2274.87	203.244
2277.29	202.724
2279.7	202.185
2282.11	201.545
2284.52	200.902
2286.93	200.19
2289.34	199.641
2291.75	199.135
2294.16	199.085
2296.57	199.041
2298.97	199.052
2301.38	199.098
2303.78	199.187
2306.19	199.271
2308.59	199.395
2310.99	199.502
2313.39	199.619
2315.79	199.627
2318.19	199.589
2320.59	199.51
2322.99	199.545
2325.38	199.187
2327.78	198.704
2330.17	198.131
2332.57	197.499
2334.96	197.008
2337.35	196.581
2339.74	196.22
2342.13	196.49
2344.52	196.633
2346.91	196.829
2349.3	197.08
2351.69	197.441
2354.07	197.854
2356.46	198.353
2358.84	198.849
2361.23	199.3
2363.61	200.006
2365.99	200.666
2368.37	201.231
2370.75	201.887
2373.13	201.592
2375.51	200.173
2377.89	198.891
2380.27	197.583
2382.64	196.315
2385.02	195.372
2387.39	194.541
2389.77	193.798
2392.14	193.159
2394.51	192.618
2396.88	192.168
2399.25	191.812
2401.62	191.4
2403.99	191.606
2406.36	191.98
2408.72	192.438
2411.09	192.91
2413.46	193.45
2415.82	193.794
2418.18	194.104
2420.55	193.603
2422.91	193.218
2425.27	192.797
2427.63	192.259
2429.99	191.673
2432.35	191.039
2434.7	190.427
2437.06	189.615
2439.42	188.938
2441.77	188.246
2444.12	187.724
2446.48	187.261
2448.83	188.045
2451.18	189.113
2453.53	190.167
2455.88	191.289
2458.23	192.424
2460.58	193.366
2462.93	194.138
2465.27	194.779
2467.62	195.319
2469.97	195.891
2472.31	196.105
2474.65	196.261
2476.99	196.294
2479.34	196.272
2481.68	196.144
2484.02	195.966
2486.36	195.727
2488.69	195.438
2491.03	195.13
2493.37	195.096
2495.7	194.838
2498.04	194.521
2500.37	194.091
2502.71	193.662
2505.04	193.164
2507.37	192.635
2509.7	192.129
2512.03	191.589
2514.36	191.117
2516.69	190.611
2519.02	190.147
2521.34	189.659
2523.67	189.467
2526	188.893
2528.32	188.353
2530.64	187.891
2532.97	188.82
2535.29	189.958
2537.61	191.214
2539.93	192.331
2542.25	193.43
2544.57	194.262
2546.88	194.684
2549.2	194.736
2551.52	193.29
2553.83	191.578
2556.15	189.642
2558.46	188.332
2560.77	187.995
2563.09	187.823
2565.4	187.874
2567.71	187.974
2570.02	187.929
2572.33	187.918
2574.63	187.984
2576.94	187.856
2579.25	187.664
2581.55	187.542
2583.86	187.367
2586.16	187.244
2588.46	187.202
2590.77	187.189
2593.07	187.309
2595.37	187.52
2597.67	187.783
2599.97	188.642
2602.27	189.585
2604.56	190.438
2606.86	191.18
2609.16	191.782
2611.45	191.861
2613.74	191.732
2616.04	191.207
2618.33	190.65
2620.62	188.986
2622.91	187.142
2625.2	185.26
2627.49	183.362
2629.78	181.459
2632.07	180.017
2634.36	178.841
2636.64	177.853
2638.93	177.136
2641.21	176.639
2643.5	176.4
2645.78	176.297
2648.06	176.256
2650.34	176.577
2652.62	177.033
2654.9	177.56
2657.18	178.151
2659.46	178.756
2661.74	179.282
2664.01	179.541
2666.29	179.699
2668.56	179.649
2670.84	179.662
2673.11	179.6
2675.38	179.579
2677.66	179.248
2679.93	178.903
2682.2	178.491
2684.47	178.061
2686.74	177.61
2689	177.081
2691.27	176.617
2693.54	176.299
2695.8	176.251
2698.07	176.382
2700.33	176.65
2702.59	176.934
2704.86	177.213
2707.12	177.489
2709.38	177.782
2711.64	178.145
2713.9	178.355
2716.16	178.521
2718.41	178.373
2720.67	178.332
2722.93	178.147
2725.18	177.903
2727.44	177.66
2729.69	177.302
2731.94	176.971
2734.19	176.626
2736.45	176.294
2738.7	176.269
2740.95	176.041
2743.19	175.771
2745.44	175.522
2747.69	175.251
2749.94	175.061
2752.18	174.901
2754.43	174.856
2756.67	175.223
2758.92	176.514
2761.16	176.669
2763.4	176.412
2765.64	175.641
2767.88	174.445
2770.12	173.203
2772.36	172.134
2774.6	171.437
2776.83	171.781
2779.07	172.493
2781.31	173.345
2783.54	174.186
2785.78	174.66
2788.01	175.164
2790.24	175.615
2792.47	175.896
2794.71	176.246
2796.94	176.421
2799.17	176.215
2801.39	174.78
2803.62	174.74
2805.85	176.105
2808.08	175.093
2810.3	173.074
2812.53	170.411
2814.75	170.138
2816.97	166.096
2819.2	173.527
2821.42	180.902
2823.64	170.714
2825.86	171.484
2828.08	171.811
2830.3	173.086
2832.52	174.214
2834.73	175.035
2836.95	175.593
2839.16	176.036
2841.38	176.264
2843.59	176.531
2845.81	175.881
2848.02	175.123
2850.23	174.391
2852.44	173.677
2854.65	173.014
2856.86	172.937
2859.07	172.768
2861.28	172.702
2863.49	172.826
2865.69	173.061
2867.9	173.302
2870.1	174.051
2872.31	174.965
2874.51	175.893
2876.71	176.823
2878.92	177.74
2881.12	178.426
2883.32	178.704
2885.52	178.515
2887.72	178.095
2889.91	177.504
2892.11	176.697
2894.31	175.839
2896.5	174.791
2898.7	173.878
2900.89	172.938
2903.09	171.985
2905.28	171.178
2907.47	170.56
2909.66	170.143
2911.86	169.896
2914.04	169.868
2916.23	169.966
2918.42	170.215
2920.61	170.561
2922.8	170.974
2924.98	171.451
2927.17	171.939
2929.35	172.487
2931.54	172.708
2933.72	173.409
2935.9	174.034
2938.08	174.641
2940.26	175.194
2942.45	175.575
2944.62	175.859
2946.8	175.973
2948.98	174.919
2951.16	173.781
2953.33	172.561
2955.51	171.22
2957.69	169.84
2959.86	168.63
2962.03	167.42
2964.21	166.442
2966.38	165.332
2968.55	164.295
2970.72	163.235
2972.89	162.305
2975.06	161.399
2977.23	160.627
2979.39	160.057
2981.56	159.472
2983.73	159.15
2985.89	158.867
2988.06	159.041
2990.22	159.39
2992.38	159.706
2994.55	160.041
2996.71	160.379
2998.87	160.741
3001.03	160.968
3003.19	161.27
3005.35	161.466
3007.5	161.462
3009.66	161.269
3011.82	161.003
3013.97	160.641
3016.13	160.152
3018.28	159.645
3020.44	159.121
3022.59	158.585
3024.74	158.08
3026.89	157.656
3029.04	157.28
3031.19	157.724
3033.34	158.188
3035.49	159.041
3037.64	163.152
3039.78	161.918
3041.93	161.13
3044.08	157.613
3046.22	156.771
3048.37	155.283
3050.51	154.634
3052.65	156.477
3054.79	146.024
3056.93	178.951
3059.07	250.153
3061.21	289.731
3063.35	406.371
3065.49	468.85
3067.63	453.715
3069.76	270.466
3071.9	187.699
3074.04	152.107
3076.17	151.625
3078.31	159.006
3080.44	162.438
3082.57	163.743
3084.7	164.387
3086.83	164.356
3088.96	164.253
3091.09	163.271
3093.22	162.154
3095.35	161.021
3097.48	159.896
3099.6	158.842
3101.73	158.029
3103.85	157.345
3105.98	156.796
3108.1	156.397
3110.23	156.087
3112.35	155.94
3114.47	155.905
3116.59	155.717
3118.71	155.551
3120.83	155.383
3122.95	155.668
3125.07	156.099
3127.19	156.935
3129.3	157.686
3131.42	158.154
3133.53	158.124
3135.65	158.067
3137.76	157.835
3139.87	157.517
3141.99	157.18
3144.1	156.794
3146.21	156.359
3148.32	155.954
3150.43	155.532
3152.54	155.319
3154.64	155.039
3156.75	154.948
3158.86	154.565
3160.96	154.216
3163.07	153.86
3165.17	153.528
3167.28	153.203
3169.38	152.893
3171.48	152.582
3173.58	152.268
3175.69	152.138
3177.79	151.903
3179.89	151.99
3181.98	152.15
3184.08	152.418
3186.18	152.632
3188.28	152.976
3190.37	153.185
3192.47	153.417
3194.56	153.571
3196.66	153.689
3198.75	153.78
3200.84	153.422
3202.93	153.16
3205.03	152.884
3207.12	152.47
3209.21	151.917
3211.29	151.428
3213.38	150.959
3215.47	150.513
3217.56	150.175
3219.64	149.816
3221.73	149.868
3223.81	150.568
3225.9	151.387
3227.98	152.175
3230.06	152.862
3232.15	153.473
3234.23	153.55
3236.31	153.624
3238.39	153.471
3240.47	153.257
3242.55	153.023
3244.62	152.319
3246.7	151.463
3248.78	150.508
3250.85	149.605
3252.93	148.797
3255	148.302
3257.08	148.201
3259.15	148.198
3261.22	148.414
3263.29	148.728
3265.36	148.598
3267.43	147.976
3269.5	147.331
3271.57	146.785
3273.64	146.264
3275.71	145.817
3277.78	145.66
3279.84	145.645
3281.91	145.784
3283.97	145.974
3286.03	146.029
3288.1	146.372
3290.16	146.982
3292.22	149.693
3294.28	152.151
3296.34	153.249
3298.4	153.444
3300.46	152.655
3302.52	150.87
3304.58	147.403
3306.64	144.85
3308.69	143.14
3310.75	142.214
3312.8	142.073
3314.86	142.676
3316.91	144.447
3318.97	146.426
3321.02	148.12
3323.07	149.546
3325.12	150.382
3327.17	150.722
3329.22	150.57
3331.27	150.066
3333.32	149.124
3335.37	147.913
3337.41	146.581
3339.46	145.153
3341.5	144.232
3343.55	143.451
3345.59	142.757
3347.64	142.412
3349.68	142.681
3351.72	144.739
3353.76	145.358
3355.8	145.639
3357.84	145.523
3359.88	145.987
3361.92	146.405
3363.96	146.794
3366	147.073
3368.03	147.153
3370.07	146.961
3372.1	146.273
3374.14	145.659
3376.17	144.827
3378.21	143.765
3380.24	142.693
3382.27	141.66
3384.3	140.787
3386.33	140.108
3388.36	139.833
3390.39	139.826
3392.42	140.182
3394.45	140.666
3396.48	141.793
3398.5	142.965
3400.53	144.179
3402.56	145.396
3404.58	146.114
3406.6	146.633
3408.63	146.821
3410.65	146.849
3412.67	146.763
3414.69	146.612
3416.71	146.283
3418.73	145.901
3420.75	145.505
3422.77	145.057
3424.79	144.621
3426.81	144.277
3428.82	144.018
3430.84	143.748
3432.86	143.51
3434.87	143.82
3436.88	144.302
3438.9	144.723
3440.91	144.975
3442.92	144.976
3444.93	144.039
3446.94	142.956
3448.95	141.831
3450.96	140.37
3452.97	138.7
3454.98	137.095
3456.99	135.531
3458.99	134.221
3461	133.094
3463.01	132.172
3465.01	131.542
3467.01	131.29
3469.02	131.137
3471.02	131.19
3473.02	131.467
3475.02	132.036
3477.02	132.877
3479.02	134.235
3481.02	135.642
3483.02	137.069
3485.02	138.457
3487.02	139.824
3489.02	140.396
3491.01	140.986
3493.01	141.335
3495	141.533
3497	141.518
3498.99	141.364
3500.98	141.022
3502.97	140.475
3504.97	139.779
3506.96	138.621
3508.95	137.374
3510.94	136.167
3512.93	134.932
3514.91	133.796
3516.9	133.41
3518.89	133.222
3520.88	133.246
3522.86	133.444
3524.85	133.677
3526.83	134.158
3528.81	134.672
3530.8	135.208
3532.78	135.768
3534.76	136.204
3536.74	136.695
3538.72	136.995
3540.7	137.296
3542.68	137.581
3544.66	137.769
3546.64	137.895
3548.62	138.079
3550.59	137.821
3552.57	137.5
3554.55	137.111
3556.52	136.645
3558.49	136.12
3560.47	135.53
3562.44	135.21
3564.41	134.879
3566.38	135.109
3568.35	135.218
3570.32	135.313
3572.29	135.41
3574.26	135.43
3576.23	135.593
3578.2	135.55
3580.17	135.268
3582.13	134.712
3584.1	134.233
3586.06	133.785
3588.03	133.455
3589.99	133.19
3591.96	133.025
3593.92	133.373
3595.88	133.671
3597.84	134.094
3599.8	135.013
3601.76	136.035
3603.72	137.096
3605.68	138.141
3607.64	139.236
3609.6	139.807
3611.55	139.508
3613.51	139.119
3615.46	138.463
3617.42	137.742
3619.37	136.861
3621.33	135.831
3623.28	134.973
3625.23	134.195
3627.18	132.67
3629.13	131.127
3631.09	129.659
3633.04	128.129
3634.98	126.891
3636.93	126.522
3638.88	126.153
3640.83	125.994
3642.77	126.452
3644.72	127.028
3646.67	127.688
3648.61	128.398
3650.56	129.068
3652.5	129.782
3654.44	130.121
3656.38	130.751
3658.33	130.833
3660.27	130.698
3662.21	130.549
3664.15	130.25
3666.09	129.878
3668.02	129.468
3669.96	128.983
3671.9	128.405
3673.84	127.874
3675.77	127.266
3677.71	126.729
3679.64	126.189
3681.58	126.057
3683.51	125.666
3685.44	125.608
3687.38	125.008
3689.31	124.376
3691.24	123.71
3693.17	122.566
3695.1	122.113
3697.03	122.093
3698.96	122.206
3700.88	122.419
3702.81	122.747
3704.74	123.163
3706.66	123.62
3708.59	124.13
3710.51	124.625
3712.44	125.041
3714.36	125.781
3716.28	126.479
3718.21	127.162
3720.13	127.793
3722.05	127.717
3723.97	127.629
3725.89	127.62
3727.81	127.629
3729.73	127.278
3731.65	126.361
3733.56	125.495
3735.48	124.616
3737.4	124.17
3739.31	123.599
3741.23	123.211
3743.14	122.724
3745.05	122.66
3746.97	122.595
3748.88	122.671
3750.79	122.792
3752.7	122.886
3754.61	122.859
3756.52	122.844
3758.43	122.628
3760.34	122.05
3762.25	121.493
3764.16	120.771
3766.06	120.117
3767.97	119.49
3769.88	118.885
3771.78	119.542
3773.69	120.602
3775.59	121.725
3777.49	122.703
3779.4	123.398
3781.3	123.794
3783.2	123.938
3785.1	123.94
3787	123.845
3788.9	123.377
3790.8	122.874
3792.7	122.34
3794.59	121.795
3796.49	121.228
3798.39	120.675
3800.28	120.152
3802.18	119.781
3804.07	119.531
3805.97	119.299
3807.86	119.113
3809.76	118.954
3811.65	118.841
3813.54	118.749
3815.43	118.687
3817.32	118.719
3819.21	118.773
3821.1	118.872
3822.99	118.914
3824.88	119.236
3826.76	119.572
3828.65	119.93
3830.54	120.312
3832.42	118.431
3834.31	118.958
3836.19	120.061
3838.08	121.312
3839.96	122.153
3841.84	122.43
3843.72	122.527
3845.61	122.239
3847.49	122.09
3849.37	121.9
3851.25	121.744
3853.13	121.526
3855	119.474
3856.88	118.576
3858.76	118.95
3860.64	119.709
3862.51	119.417
3864.39	118.571
3866.26	117.599
3868.14	116.492
3870.01	115.537
3871.88	114.682
3873.76	114.098
3875.63	113.554
3877.5	113.45
3879.37	113.642
3881.24	113.949
3883.11	114.352
3884.98	114.77
3886.85	115.194
3888.72	115.636
3890.58	115.829
3892.45	116.078
3894.31	116.233
3896.18	116.327
3898.05	116.552
3899.91	116.319
3901.77	116.025
3903.64	115.594
3905.5	115.127
3907.36	114.731
3909.22	114.274
3911.08	113.822
3912.94	113.721
3914.8	113.651
3916.66	113.549
3918.52	113.494
3920.38	113.458
3922.23	113.449
3924.09	113.448
3925.95	113.432
3927.8	113.421
3929.66	113.343
3931.51	113.308
3933.36	113.17
3935.22	112.992
3937.07	112.781
3938.92	112.496
3940.77	112.104
3942.62	111.742
3944.47	111.43
3946.32	110.996
3948.17	110.543
3950.02	110.065
3951.87	109.618
3953.72	109.161
3955.56	108.747
3957.41	108.387
3959.25	108.115
3961.1	107.895
3962.94	107.821
3964.79	107.662
3966.63	107.616
3968.47	107.525
3970.31	107.462
3972.16	107.38
3974	107.259
3975.84	107.123
3977.68	107.018
3979.51	106.881
3981.35	106.753
3983.19	106.476
3985.03	105.924
3986.87	105.258
3988.7	104.153
3990.54	103.427
3992.37	102.996
3994.21	103.844
3996.04	105.454
3997.87	108.116
3999.71	107.206
