#Acq. time (s)=	10
#Accumulations=	2
#Range (cm-¹)=	100...4000
#Windows=	1
#Auto scanning=	Off
#Autofocus=	Off
#Macrospot=	Off
#AutoExposure=	Off
#Spike filter=	Multiple accum.
#Delay time (s)=	2
#Binning=	1
#Readout mode=	Signal
#DeNoise=	Standard
#ICS correction=	On
#Dark correction=	Off
#Inst. Process=	Off
#Detector Gain=	Best Dynamic
#Detector ADC=	50 kHz HS
#Detector temperature (°C)=	-60.09
#Instrument=	LabRAM HR Evol
#Detector=	SIN-EM FIVIS
#Objective=	x100_VIS
#Grating=	150 (500nm)
#ND Filter=	10%
#Laser=	633nm_Edge
#Hole=	30.0125
#Temperature=	0
#Range=	Visible
#StageXY=	75x50mm Scan+
#StageZ=	Z motor
#X (µm)=	0
#Y (µm)=	0
#Z (µm)=	-2.5
#Full time(s)=	24
#Project=	20_10_27
#Sample=	BU19TS
#Site=	
#Title=	BU19TS-Coltan2-rim_150 (500nm)_633nm_Edge_10%_x100_VIS_H30um_10sX2
#Remark=	
#Date=	27.10.2020 16:56
#Acquired=	27.10.2020 16:56:06
100.764	60.0907
104.022	60.132
107.281	62.3222
110.536	68.3129
113.791	73.3782
117.044	74.4836
120.297	90.8073
123.546	105.263
126.797	118.054
130.044	128.93
133.291	137.912
136.536	140.207
139.78	135.446
143.022	113.424
146.264	98.4251
149.503	87.6601
152.741	73.8971
155.979	75.631
159.214	91.2989
162.449	91.8143
165.682	92.2528
168.914	93.0883
172.144	91.983
175.374	91.8282
178.601	90.2247
181.827	89.8636
185.053	87.5377
188.276	85.2424
191.499	82.6938
194.719	81.5882
197.939	81.7341
201.158	93.2004
204.374	110.128
207.591	129.06
210.805	122.549
214.017	94.6618
217.23	84.333
220.44	77.5489
223.648	76.4024
226.857	80.3276
230.063	84.2243
233.267	89.9041
236.472	98.84
239.674	109.695
242.874	124.264
246.075	134.049
249.273	137.203
252.47	142.179
255.667	150.371
258.861	163.539
262.053	178.028
265.246	197.541
268.436	234.764
271.625	281.642
274.813	302.501
278	280.827
281.185	238.709
284.369	195.58
287.552	171.158
290.733	150.595
293.913	142.635
297.091	141.065
300.27	142.407
303.445	143.034
306.62	135.958
309.793	128.378
312.965	127.318
316.137	128.678
319.306	125.943
322.474	122.009
325.64	115.514
328.806	107.831
331.971	100.305
335.134	94.0188
338.295	89.3104
341.456	84.6149
344.614	82.794
347.773	80.3206
350.93	79.0451
354.085	78.0246
357.238	78.1999
360.391	77.5504
363.542	78.9399
366.692	78.7592
369.842	82.3844
372.989	84.9494
376.135	89.2383
379.28	94.6639
382.423	102.082
385.565	109.417
388.706	116.545
391.846	120.376
394.984	121.32
398.123	116.117
401.258	111.9
404.393	107.152
407.526	101.558
410.658	97.7756
413.789	95.2364
416.918	93.876
420.046	93.1605
423.173	92.0704
426.299	93.7367
429.423	94.3914
432.546	95.4824
435.668	96.9955
438.788	98.6795
441.907	100.901
445.025	102.987
448.142	105.974
451.257	109.429
454.372	113.15
457.484	116.97
460.596	121.348
463.706	125.893
466.816	130.628
469.923	135.08
473.03	139.636
476.135	143.664
479.239	147.191
482.342	150.46
485.444	153.155
488.544	155.857
491.643	157.392
494.741	158.064
497.837	155.478
500.933	148.462
504.027	141.686
507.12	136.222
510.21	136.118
513.3	136.112
516.389	141.607
519.477	142.522
522.563	148.224
525.649	172.223
528.733	187.419
531.815	186.601
534.897	172.347
537.976	160.504
541.055	149.802
544.133	139.016
547.209	131.91
550.285	126.474
553.359	121.496
556.43	118.125
559.502	115.463
562.572	113.797
565.641	112.14
568.709	110.82
571.776	110.16
574.84	109.955
577.904	110.071
580.967	110.445
584.029	111.616
587.09	113.145
590.147	115.004
593.205	117.901
596.262	120.786
599.318	123.837
602.371	128.166
605.424	132.104
608.476	138.93
611.527	146.224
614.575	155.26
617.623	165.545
620.67	176.433
623.716	190.03
626.759	202.769
629.802	214.761
632.844	227.762
635.884	235.488
638.924	239.874
641.962	221.562
644.998	197.485
648.034	184.007
651.069	168.227
654.101	151.201
657.133	140.651
660.165	131.756
663.193	126.146
666.222	120.104
669.25	115.298
672.274	111.202
675.3	107.855
678.324	105.268
681.345	103.322
684.366	102.114
687.385	100.828
690.404	98.9854
693.422	98.2113
696.438	98.0033
699.453	97.8465
702.466	98.2493
705.479	98.7955
708.491	99.3159
711.5	99.9951
714.51	100.435
717.516	100.812
720.523	101.485
723.528	102.211
726.533	102.655
729.536	102.939
732.537	103.181
735.538	102.984
738.537	102.835
741.535	102.523
744.531	102.209
747.528	101.841
750.521	101.435
753.515	100.979
756.507	100.719
759.498	100.353
762.487	100.292
765.476	99.8097
768.463	99.5276
771.45	99.2441
774.434	99.6243
777.417	99.872
780.4	100.639
783.381	101.539
786.362	102.862
789.34	104.562
792.319	104.934
795.294	106.041
798.269	108.828
801.244	113.611
804.217	118.889
807.189	127.03
810.159	134.416
813.128	141.041
816.097	149.945
819.064	159.835
822.03	172.684
824.995	184.079
827.958	193.934
830.921	203.846
833.881	214.935
836.841	227.033
839.801	236.814
842.758	247.572
845.714	272.393
848.67	300.171
851.624	353.768
854.576	436.012
857.529	527.116
860.479	671.692
863.428	831.827
866.377	1064.74
869.324	1447.57
872.269	1914.97
875.215	2360.67
878.158	2397.73
881.1	1981.8
884.041	1380.27
886.982	874.373
889.92	592.409
892.858	433.278
895.794	317.04
898.73	279.963
901.664	228.699
904.597	190.024
907.529	153.581
910.459	137.423
913.39	125.574
916.318	117.781
919.245	112.035
922.171	106.75
925.095	101.306
928.02	97.3548
930.943	93.8336
933.864	90.6976
936.784	87.9727
939.703	85.4755
942.62	83.4779
945.539	80.9174
948.454	79.0655
951.368	77.6311
954.282	76.7542
957.194	75.315
960.105	74.1187
963.014	74.1647
965.924	75.16
968.832	75.4717
971.738	74.7444
974.643	73.4302
977.547	72.2706
980.45	70.9385
983.352	69.9377
986.253	68.9792
989.152	68.0624
992.051	67.297
994.948	66.6444
997.844	65.9728
1000.74	65.4595
1003.63	64.7983
1006.53	64.2753
1009.42	64.1664
1012.31	64.2253
1015.2	64.5607
1018.09	65.0557
1020.97	65.3515
1023.86	65.7211
1026.74	65.9589
1029.63	65.7432
1032.51	65.3893
1035.39	65.0926
1038.27	65.0461
1041.15	64.8947
1044.03	64.8425
1046.91	64.6285
1049.78	64.6021
1052.66	64.4047
1055.53	64.0437
1058.4	63.3661
1061.27	62.8184
1064.14	62.4444
1067.01	62.3044
1069.88	62.0949
1072.75	61.8951
1075.61	61.8217
1078.48	61.8532
1081.34	62.1691
1084.2	62.2987
1087.06	62.2015
1089.92	62.1329
1092.78	62.4386
1095.64	62.589
1098.5	62.6046
1101.35	62.538
1104.21	62.5412
1107.06	62.3399
1109.91	62.0369
1112.77	61.9342
1115.62	61.5734
1118.46	61.5266
1121.31	61.3583
1124.16	61.3917
1127	61.4929
1129.85	61.5859
1132.69	61.6816
1135.53	61.787
1138.37	61.7423
1141.22	61.5194
1144.05	61.128
1146.89	60.7916
1149.73	60.4714
1152.56	60.1729
1155.4	59.801
1158.23	59.1184
1161.06	58.5367
1163.9	57.9086
1166.73	57.5142
1169.56	57.2103
1172.38	56.8851
1175.21	56.5732
1178.04	56.0497
1180.86	55.5516
1183.68	55.4844
1186.51	55.2288
1189.33	55.1022
1192.15	54.973
1194.97	54.7933
1197.78	54.3572
1200.6	54.1757
1203.42	54.1413
1206.23	54.0881
1209.04	54.112
1211.86	53.8762
1214.67	53.5778
1217.48	53.1934
1220.29	52.9307
1223.1	52.6063
1225.9	52.0472
1228.71	51.9321
1231.51	51.8156
1234.32	51.7373
1237.12	51.6497
1239.92	51.4579
1242.72	51.1302
1245.52	51.0025
1248.32	50.8144
1251.12	50.6427
1253.92	50.4787
1256.71	50.2851
1259.5	49.7375
1262.3	49.2268
1265.09	48.76
1267.88	48.2235
1270.67	47.8931
1273.46	47.5969
1276.25	47.4276
1279.03	47.2941
1281.82	47.3327
1284.6	47.3126
1287.39	47.3703
1290.17	47.4052
1292.95	47.3159
1295.73	47.3277
1298.51	47.1462
1301.29	47.1122
1304.06	47.2818
1306.84	47.4718
1309.61	47.7162
1312.39	47.8178
1315.16	47.7465
1317.93	47.644
1320.7	47.4335
1323.47	47.266
1326.24	47.068
1329.01	47.0859
1331.77	47.0608
1334.54	46.8966
1337.3	46.633
1340.06	46.6699
1342.83	46.7376
1345.59	46.8923
1348.35	47.0754
1351.1	47.2166
1353.86	47.4411
1356.62	47.6946
1359.37	47.7486
1362.13	47.4406
1364.88	47.244
1367.63	46.7733
1370.39	46.8014
1373.14	46.8676
1375.89	46.8909
1378.63	46.3076
1381.38	45.9156
1384.13	45.8063
1386.87	45.8124
1389.62	45.7236
1392.36	45.6966
1395.1	45.9496
1397.84	46.0076
1400.58	46.1844
1403.32	46.2896
1406.06	46.3147
1408.79	46.4048
1411.53	46.3111
1414.26	46.2504
1417	45.9843
1419.73	45.7736
1422.46	45.6935
1425.19	45.9426
1427.92	46.1308
1430.65	46.27
1433.38	46.5135
1436.1	46.7579
1438.83	46.786
1441.55	46.6222
1444.27	46.4446
1447	46.4204
1449.72	46.2701
1452.44	46.1774
1455.16	46.0611
1457.87	45.914
1460.59	45.5227
1463.31	45.1525
1466.02	44.9005
1468.73	44.6659
1471.45	44.5796
1474.16	44.5691
1476.87	44.6698
1479.58	44.848
1482.29	45.0321
1484.99	45.3191
1487.7	45.4783
1490.41	45.4639
1493.11	45.4313
1495.81	45.2395
1498.52	45.0371
1501.22	44.8259
1503.92	44.5341
1506.62	44.111
1509.32	43.6909
1512.01	43.475
1514.71	43.2924
1517.4	43.1416
1520.1	43.0126
1522.79	42.8997
1525.48	42.8176
1528.17	43.0213
1530.86	43.1998
1533.55	43.2062
1536.24	43.1664
1538.93	42.2386
1541.61	41.5009
1544.3	41.1815
1546.98	41.1082
1549.67	40.7927
1552.35	40.7764
1555.03	40.9123
1557.71	41.2805
1560.39	41.4647
1563.07	41.7468
1565.74	42.1649
1568.42	42.2747
1571.09	42.4776
1573.77	42.8274
1576.44	42.8082
1579.11	42.7022
1581.78	42.6629
1584.45	42.5531
1587.12	42.4486
1589.79	42.4028
1592.45	42.3555
1595.12	42.4257
1597.78	42.4334
1600.45	42.2597
1603.11	42.0308
1605.77	41.8708
1608.43	41.6606
1611.09	41.5054
1613.75	41.3038
1616.41	41.1124
1619.07	40.8878
1621.72	40.7846
1624.38	40.7123
1627.03	40.6631
1629.68	40.7393
1632.33	40.7729
1634.98	40.8347
1637.63	40.8739
1640.28	40.9155
1642.93	40.9663
1645.58	41.1051
1648.22	41.1826
1650.87	41.3116
1653.51	41.4514
1656.15	41.5839
1658.8	41.689
1661.44	41.7884
1664.08	41.8969
1666.71	41.9547
1669.35	42.0464
1671.99	42.1038
1674.62	42.2071
1677.26	42.1411
1679.89	42.0913
1682.53	42.0481
1685.16	41.9932
1687.79	41.9758
1690.42	41.8892
1693.05	41.861
1695.67	41.8494
1698.3	41.8696
1700.93	41.9331
1703.55	42.05
1706.18	42.2651
1708.8	42.7829
1711.42	43.3927
1714.04	44.0461
1716.66	44.7019
1719.28	45.3997
1721.9	46.0763
1724.51	46.7922
1727.13	47.4751
1729.75	47.9341
1732.36	47.6987
1734.97	47.3004
1737.58	46.9697
1740.2	46.7382
1742.81	46.2256
1745.42	45.5899
1748.02	44.9546
1750.63	44.2709
1753.24	43.506
1755.84	42.9861
1758.45	42.4932
1761.05	41.803
1763.65	41.0245
1766.25	40.3893
1768.85	39.645
1771.45	38.8705
1774.05	38.0929
1776.65	37.4574
1779.24	36.7536
1781.84	36.2783
1784.44	35.6428
1787.03	35.2033
1789.62	34.9187
1792.21	34.478
1794.8	34.0247
1797.39	33.6236
1799.98	33.2719
1802.57	32.9687
1805.16	32.7068
1807.74	32.4946
1810.33	32.3048
1812.91	32.1836
1815.49	31.9816
1818.08	32.0163
1820.66	32.0188
1823.24	32.1192
1825.82	32.2665
1828.39	32.4886
1830.97	32.7943
1833.55	32.9492
1836.12	33.1101
1838.7	33.2396
1841.27	33.3688
1843.84	33.3332
1846.42	32.9569
1848.99	32.7776
1851.56	32.6498
1854.12	32.5375
1856.69	32.4331
1859.26	32.2233
1861.82	32.1266
1864.39	31.9946
1866.95	31.8379
1869.52	31.3743
1872.08	31.1808
1874.64	30.934
1877.2	30.9535
1879.76	31.1227
1882.32	31.2704
1884.87	31.5105
1887.43	31.4398
1889.98	31.29
1892.54	31.1737
1895.09	31.2388
1897.64	31.3263
1900.2	31.4334
1902.75	31.5653
1905.3	31.705
1907.85	31.8846
1910.39	31.498
1912.94	30.9387
1915.49	31.2156
1918.03	31.0886
1920.57	31.0235
1923.12	31.0008
1925.66	30.9862
1928.2	30.953
1930.74	30.873
1933.28	30.9966
1935.82	31.3172
1938.36	31.5124
1940.89	31.5729
1943.43	31.7248
1945.96	31.7655
1948.5	31.6892
1951.03	31.7685
1953.56	31.7553
1956.09	31.7599
1958.62	31.7703
1961.15	31.7785
1963.68	31.7896
1966.21	31.7659
1968.73	31.6242
1971.26	31.3015
1973.78	31.0444
1976.31	30.6544
1978.83	30.4179
1981.35	30.2202
1983.87	30.0935
1986.39	30.197
1988.91	30.1952
1991.43	30.249
1993.94	30.5904
1996.46	30.6049
1998.98	30.4764
2001.49	30.3698
2004	30.2618
2006.52	30.0844
2009.03	30.1323
2011.54	30.1745
2014.05	30.2597
2016.56	30.7353
2019.06	30.915
2021.57	30.6518
2024.08	30.3705
2026.58	30.1406
2029.08	30.0289
2031.59	29.8834
2034.09	29.9285
2036.59	30.0859
2039.09	30.21
2041.59	30.3119
2044.09	30.1417
2046.59	29.9062
2049.08	29.6857
2051.58	29.4547
2054.07	29.3492
2056.57	29.201
2059.06	29.0621
2061.55	28.9339
2064.05	28.8236
2066.54	28.7299
2069.02	28.6549
2071.51	28.6456
2074	28.6004
2076.49	28.555
2078.97	28.7048
2081.46	28.888
2083.94	29.1011
2086.43	29.3419
2088.91	29.2079
2091.39	28.9201
2093.87	28.7468
2096.35	28.5504
2098.83	28.4219
2101.3	28.562
2103.78	28.6979
2106.26	28.7509
2108.73	28.8012
2111.21	28.8124
2113.68	28.9816
2116.15	28.8673
2118.62	28.7797
2121.09	28.7476
2123.56	28.5557
2126.03	28.4642
2128.5	28.3047
2130.97	28.1176
2133.43	27.8491
2135.9	27.5188
2138.36	27.302
2140.83	27.1418
2143.29	27.2133
2145.75	27.4049
2148.21	27.5175
2150.67	27.6583
2153.13	27.7983
2155.59	27.9755
2158.04	28.1879
2160.5	28.3932
2162.95	28.6012
2165.41	28.7383
2167.86	28.8695
2170.31	28.8316
2172.77	29.0326
2175.22	29.2728
2177.67	29.3572
2180.12	29.3017
2182.56	29.332
2185.01	29.5935
2187.46	29.8864
2189.9	30.0392
2192.35	30.1008
2194.79	29.9842
2197.23	29.8569
2199.68	29.6242
2202.12	29.4934
2204.56	29.3938
2207	29.265
2209.43	29.1959
2211.87	29.1802
2214.31	29.0886
2216.74	29.0106
2219.18	28.7027
2221.61	28.3759
2224.05	28.2479
2226.48	28.4404
2228.91	28.5451
2231.34	28.6838
2233.77	28.9064
2236.2	28.4242
2238.63	27.904
2241.05	27.3469
2243.48	25.9537
2245.9	26.0367
2248.33	26.2675
2250.75	26.7816
2253.17	27.1995
2255.6	27.6151
2258.02	28.0969
2260.44	28.6215
2262.86	28.7199
2265.27	28.2262
2267.69	28.0332
2270.11	27.7942
2272.52	27.4871
2274.94	27.3717
2277.35	27.3062
2279.76	27.3304
2282.18	27.2348
2284.59	27.2166
2287	27.2791
2289.41	27.3767
2291.82	27.5721
2294.23	28.0055
2296.63	27.974
2299.04	27.9318
2301.44	27.8798
2303.85	27.8583
2306.25	27.7981
2308.65	27.7474
2311.05	27.7971
2313.46	27.8192
2315.86	27.8845
2318.25	27.9406
2320.65	28.0187
2323.05	28.1053
2325.45	28.1908
2327.84	28.2988
2330.24	28.4275
2332.63	28.512
2335.03	28.3879
2337.42	28.1386
2339.81	27.8961
2342.2	27.5999
2344.59	27.1508
2346.98	26.8853
2349.37	26.5953
2351.75	26.3016
2354.14	25.9982
2356.52	25.8244
2358.91	25.791
2361.29	25.6658
2363.67	25.7019
2366.06	26.0478
2368.44	26.2056
2370.82	26.6494
2373.2	26.9795
2375.58	27.129
2377.95	27.3883
2380.33	27.465
2382.71	27.516
2385.08	27.6077
2387.46	27.7776
2389.83	28.0519
2392.2	28.1701
2394.57	28.2208
2396.95	28.1206
2399.32	28.0015
2401.68	27.9116
2404.05	27.7903
2406.42	27.6834
2408.79	27.5829
2411.15	27.3683
2413.52	27.2557
2415.88	27.03
2418.25	26.8254
2420.61	26.7691
2422.97	26.6942
2425.33	26.6258
2427.69	26.6872
2430.05	26.701
2432.41	26.7665
2434.77	26.8124
2437.12	26.8345
2439.48	26.8937
2441.83	26.7379
2444.19	26.4713
2446.54	26.2987
2448.89	26.2512
2451.24	26.2001
2453.6	26.265
2455.95	26.6419
2458.29	26.8779
2460.64	26.8783
2462.99	26.7601
2465.34	26.6605
2467.68	26.5331
2470.03	26.4358
2472.37	26.3121
2474.72	26.232
2477.06	26.1046
2479.4	26.0714
2481.74	26.032
2484.08	26.0922
2486.42	26.1545
2488.76	26.6743
2491.1	27.2382
2493.43	26.9405
2495.77	26.5972
2498.1	26.3347
2500.44	26.3501
2502.77	26.3997
2505.1	26.6279
2507.43	26.7099
2509.76	26.7596
2512.1	26.4014
2514.42	25.9851
2516.75	25.7261
2519.08	25.3801
2521.41	25.1897
2523.73	25.1641
2526.06	25.161
2528.38	25.3403
2530.71	25.534
2533.03	25.4099
2535.35	25.1683
2537.67	24.8848
2539.99	24.6852
2542.31	24.5546
2544.63	24.646
2546.95	24.8834
2549.26	25.2364
2551.58	25.6112
2553.89	26.048
2556.21	26.3164
2558.52	26.5174
2560.84	26.6414
2563.15	26.8286
2565.46	26.8116
2567.77	26.7559
2570.08	26.7575
2572.39	26.8035
2574.7	26.8295
2577	26.7095
2579.31	26.5582
2581.61	26.416
2583.92	26.4697
2586.22	26.4905
2588.53	26.3156
2590.83	26.1638
2593.13	26.0102
2595.43	25.863
2597.73	25.7231
2600.03	25.6
2602.33	25.4994
2604.62	25.4491
2606.92	25.411
2609.22	25.435
2611.51	25.5571
2613.81	25.7243
2616.1	26.0568
2618.39	26.3167
2620.68	26.5088
2622.97	26.7386
2625.26	26.9504
2627.55	27.2267
2629.84	27.5093
2632.13	27.5613
2634.42	27.5298
2636.7	27.5176
2638.99	27.2445
2641.27	27.1381
2643.56	27.03
2645.84	26.7348
2648.12	26.5392
2650.4	26.3034
2652.68	25.9662
2654.96	25.5557
2657.24	25.3837
2659.52	25.0898
2661.8	25.0047
2664.07	24.8907
2666.35	24.8078
2668.63	24.802
2670.9	24.8238
2673.17	24.8701
2675.45	24.917
2677.72	24.987
2679.99	25.0547
2682.26	25.1429
2684.53	25.2243
2686.8	25.3271
2689.06	25.416
2691.33	25.5275
2693.6	25.6198
2695.86	25.7267
2698.13	25.8007
2700.39	25.8607
2702.66	25.6978
2704.92	24.3299
2707.18	24.2743
2709.44	24.5718
2711.7	24.9754
2713.96	24.7813
2716.22	24.6899
2718.47	24.8068
2720.73	24.7982
2722.99	24.8532
2725.24	24.879
2727.5	24.848
2729.75	24.905
2732	24.7945
2734.26	24.621
2736.51	24.398
2738.76	24.3573
2741.01	24.2088
2743.25	24.3761
2745.5	24.54
2747.75	24.7218
2750	24.8388
2752.24	25.0762
2754.49	25.2555
2756.73	25.433
2758.98	25.6002
2761.22	25.7596
2763.46	25.9145
2765.7	26.0968
2767.94	26.0088
2770.18	25.752
2772.42	25.44
2774.66	25.0557
2776.9	24.955
2779.13	24.8426
2781.37	24.68
2783.6	24.6793
2785.84	24.7168
2788.07	24.6278
2790.3	24.6031
2792.53	24.4598
2794.77	24.2813
2797	24.3261
2799.23	24.3679
2801.45	24.3592
2803.68	24.3891
2805.91	24.4374
2808.14	24.4675
2810.36	24.5648
2812.59	24.5369
2814.81	24.5098
2817.03	24.4823
2819.26	24.6463
2821.48	24.7272
2823.7	24.7861
2825.92	24.9103
2828.14	25.0163
2830.36	25.1265
2832.57	25.2393
2834.79	25.3442
2837.01	25.516
2839.22	25.6336
2841.44	25.7493
2843.65	25.8609
2845.87	25.9639
2848.08	25.7211
2850.29	25.4461
2852.5	25.2634
2854.71	25.0108
2856.92	24.9361
2859.13	24.9396
2861.34	25.0766
2863.55	25.1163
2865.75	25.1327
2867.96	25.4496
2870.16	25.474
2872.37	25.3726
2874.57	25.3987
2876.77	25.4251
2878.98	25.5685
2881.18	25.7138
2883.38	25.7224
2885.58	25.7551
2887.78	25.7268
2889.97	25.696
2892.17	25.6609
2894.37	25.496
2896.56	25.3698
2898.76	25.3837
2900.95	25.4011
2903.15	25.451
2905.34	25.4191
2907.53	25.4097
2909.72	25.3374
2911.91	25.2706
2914.1	25.2326
2916.29	25.133
2918.48	25.067
2920.67	24.832
2922.86	24.7834
2925.04	24.7463
2927.23	24.8721
2929.41	25.1607
2931.6	25.3257
2933.78	25.4489
2935.96	25.5178
2938.14	25.5049
2940.32	25.492
2942.5	25.5863
2944.68	25.5191
2946.86	25.5056
2949.04	25.5361
2951.22	25.5035
2953.39	25.4636
2955.57	25.5643
2957.74	25.8117
2959.92	25.7708
2962.09	25.7112
2964.26	25.6307
2966.44	25.5664
2968.61	25.6002
2970.78	25.6637
2972.95	25.7708
2975.12	25.5964
2977.28	25.3751
2979.45	25.1218
2981.62	24.8518
2983.79	24.7488
2985.95	24.6867
2988.11	24.632
2990.28	25.0474
2992.44	25.4633
2994.6	25.8777
2996.77	26.2608
2998.93	26.5387
3001.09	26.5313
3003.25	26.5247
3005.4	26.5188
3007.56	26.5136
3009.72	26.5089
3011.88	26.5049
3014.03	26.5013
3016.19	26.4983
3018.34	26.4954
3020.49	26.4927
3022.65	26.4883
3024.8	26.4809
3026.95	26.4559
3029.1	26.459
3031.25	26.4255
3033.4	26.4397
3035.55	26.4372
3037.7	26.4181
3039.84	26.4178
3041.99	26.3621
3044.13	26.3726
3046.28	26.3708
3048.42	26.3899
3050.57	26.4002
3052.71	26.4278
3054.85	26.3923
3056.99	26.2533
3059.13	26.1638
3061.27	26.104
3063.41	26.0087
3065.55	25.9163
3067.69	25.9423
3069.82	25.9671
3071.96	26.2362
3074.09	26.1214
3076.23	26.0712
3078.36	25.9224
3080.5	25.5335
3082.63	25.1911
3084.76	24.8368
3086.89	24.5877
3089.02	24.3135
3091.15	23.9629
3093.28	23.5323
3095.41	23.3778
3097.53	23.2005
3099.66	23.3962
3101.79	23.6922
3103.91	23.9723
3106.04	24.4704
3108.16	24.9892
3110.28	25.4037
3112.41	25.8593
3114.53	25.9097
3116.65	25.9848
3118.77	26.0722
3120.89	26.1898
3123.01	26.2883
3125.12	26.683
3127.24	26.8682
3129.36	27.0628
3131.47	27.2348
3133.59	27.2345
3135.7	27.2556
3137.82	27.3305
3139.93	27.3777
3142.04	27.4601
3144.15	27.7874
3146.27	27.846
3148.38	28.022
3150.49	27.8549
3152.59	27.7932
3154.7	26.8044
3156.81	26.4801
3158.92	26.2032
3161.02	26.2258
3163.13	26.324
3165.23	26.4593
3167.33	26.7176
3169.44	27.1531
3171.54	27.0571
3173.64	26.9016
3175.74	26.7717
3177.84	26.6241
3179.94	26.5049
3182.04	26.3725
3184.14	26.2721
3186.24	26.163
3188.33	26.0913
3190.43	26.0139
3192.52	26.0164
3194.62	26.0669
3196.71	26.1448
3198.81	26.2447
3200.9	26.3624
3202.99	26.5493
3205.08	26.7159
3207.17	26.9983
3209.26	27.156
3211.35	27.1124
3213.44	27.2041
3215.53	27.3231
3217.61	27.648
3219.7	27.8687
3221.79	28.0984
3223.87	28.3495
3225.95	28.588
3228.04	28.3502
3230.12	27.8729
3232.2	27.4001
3234.28	26.925
3236.36	27.4466
3238.44	27.3127
3240.52	27.5097
3242.6	26.8403
3244.68	27.1034
3246.76	26.9275
3248.83	26.6241
3250.91	26.535
3252.98	26.4549
3255.06	26.599
3257.13	26.4495
3259.2	26.3863
3261.28	26.5368
3263.35	26.8998
3265.42	27.4053
3267.49	27.8545
3269.56	28.097
3271.63	28.426
3273.7	28.8763
3275.76	29.0511
3277.83	29.0435
3279.9	29.2932
3281.96	29.3044
3284.03	29.3414
3286.09	29.3529
3288.15	29.2741
3290.22	29.0771
3292.28	28.9003
3294.34	28.6003
3296.4	28.366
3298.46	28.1095
3300.52	27.9783
3302.58	27.8937
3304.64	27.9424
3306.69	28.0566
3308.75	27.8324
3310.8	27.7881
3312.86	27.7989
3314.91	27.7676
3316.97	27.7583
3319.02	27.7805
3321.07	27.8316
3323.12	27.748
3325.18	27.6847
3327.23	27.6841
3329.28	27.6861
3331.32	27.5836
3333.37	27.6324
3335.42	27.749
3337.47	27.9425
3339.51	28.1051
3341.56	28.115
3343.6	27.9129
3345.65	27.6113
3347.69	27.5542
3349.73	27.5204
3351.78	27.5063
3353.82	27.515
3355.86	27.55
3357.9	27.5956
3359.94	27.6547
3361.98	27.6601
3364.02	27.7399
3366.05	27.8069
3368.09	27.2447
3370.12	27.2123
3372.16	27.0212
3374.19	27.0053
3376.23	26.9792
3378.26	26.6875
3380.29	26.5394
3382.33	26.1314
3384.36	27.0414
3386.39	28.4523
3388.42	28.6597
3390.45	28.7854
3392.48	28.8781
3394.5	28.9479
3396.53	29.0194
3398.56	29.0745
3400.58	29.1388
3402.61	29.1742
3404.63	29.2225
3406.66	29.2334
3408.68	29.2579
3410.7	29.2489
3412.73	29.2458
3414.75	29.2241
3416.77	29.1905
3418.79	29.0326
3420.81	29.0324
3422.83	29.0407
3424.84	29.0709
3426.86	29.0897
3428.88	29.1549
3430.89	29.1635
3432.91	29.2103
3434.92	29.2299
3436.94	29.5953
3438.95	29.4664
3440.96	29.3392
3442.98	29.205
3444.99	29.0448
3447	28.8678
3449.01	28.7042
3451.02	28.3405
3453.03	28.1412
3455.03	27.9338
3457.04	27.7974
3459.05	27.708
3461.05	27.6321
3463.06	27.5633
3465.06	27.5639
3467.07	27.6152
3469.07	27.7628
3471.07	27.9132
3473.08	28.0304
3475.08	28.1343
3477.08	28.2848
3479.08	28.4052
3481.08	28.6142
3483.08	28.845
3485.07	29.0681
3487.07	29.3023
3489.07	29.5319
3491.07	29.6191
3493.06	29.6569
3495.06	29.4873
3497.05	29.1594
3499.04	29.1464
3501.04	29.0398
3503.03	29.1049
3505.02	28.844
3507.01	28.7319
3509	28.5754
3510.99	28.5355
3512.98	28.5396
3514.97	28.5899
3516.96	28.8236
3518.94	29.2612
3520.93	29.9457
3522.91	30.5957
3524.9	30.503
3526.88	30.1136
3528.87	29.7407
3530.85	29.3942
3532.83	29.0094
3534.82	28.6491
3536.8	28.2849
3538.78	27.9691
3540.76	27.654
3542.74	27.3664
3544.71	27.1524
3546.69	27.3822
3548.67	27.4489
3550.65	27.5953
3552.62	27.7823
3554.6	28.1182
3556.57	28.5501
3558.55	28.9953
3560.52	29.4519
3562.49	29.9166
3564.47	29.8018
3566.44	29.9471
3568.41	30.0456
3570.38	30.3054
3572.35	30.4522
3574.32	30.6652
3576.29	30.6657
3578.25	30.521
3580.22	30.0788
3582.19	30.0754
3584.15	30.4601
3586.12	30.3748
3588.08	30.2101
3590.05	30.0864
3592.01	30.1353
3593.97	30.1637
3595.93	30.1323
3597.89	29.9833
3599.85	29.9169
3601.81	30.1866
3603.77	30.2157
3605.73	30.4172
3607.69	30.6936
3609.65	30.8838
3611.61	30.9838
3613.56	31.0541
3615.52	31.1529
3617.47	31.2022
3619.43	31.3008
3621.38	31.3436
3623.33	31.2511
3625.28	31.2587
3627.24	31.1324
3629.19	31.1136
3631.14	30.939
3633.09	30.4967
3635.04	30.2258
3636.99	30.1043
3638.93	30.0993
3640.88	30.2604
3642.83	30.0515
3644.77	29.7664
3646.72	29.5347
3648.66	29.4673
3650.61	29.2427
3652.55	29.3648
3654.49	29.5283
3656.44	28.9623
3658.38	28.4229
3660.32	28.0701
3662.26	27.8704
3664.2	27.843
3666.14	28.0075
3668.08	28.3985
3670.01	29.0286
3671.95	30.0089
3673.89	30.6133
3675.82	30.9619
3677.76	31.0029
3679.69	30.8072
3681.63	30.7006
3683.56	30.4659
3685.5	30.2561
3687.43	30.138
3689.36	30.2144
3691.29	30.4481
3693.22	30.4642
3695.15	30.419
3697.08	30.2756
3699.01	30.4131
3700.94	30.4029
3702.86	30.397
3704.79	30.4368
3706.72	30.4623
3708.64	30.535
3710.57	30.7926
3712.49	31.0436
3714.41	31.0784
3716.34	31.0185
3718.26	30.8985
3720.18	30.7981
3722.1	30.8841
3724.02	31.1396
3725.94	31.3437
3727.86	31.6029
3729.78	31.7272
3731.7	31.5524
3733.61	31.4112
3735.53	31.1564
3737.45	30.9701
3739.36	30.6509
3741.28	30.2261
3743.19	30.2472
3745.11	30.4985
3747.02	30.7031
3748.93	30.9348
3750.84	31.0968
3752.75	31.1351
3754.66	31.2839
3756.57	31.2564
3758.48	31.1279
3760.39	31.207
3762.3	31.2888
3764.21	31.3907
3766.12	31.5013
3768.02	31.6232
3769.93	31.7535
3771.83	31.8884
3773.74	32.0173
3775.64	32.27
3777.54	32.382
3779.45	32.5474
3781.35	32.4095
3783.25	31.995
3785.15	31.7161
3787.05	31.3809
3788.95	31.0425
3790.85	30.7094
3792.75	30.3978
3794.65	30.1031
3796.54	29.8304
3798.44	29.633
3800.34	29.3958
3802.23	29.7495
3804.13	30.1794
3806.02	30.6335
3807.91	31.1062
3809.81	31.5831
3811.7	32.0605
3813.59	32.4614
3815.48	32.8426
3817.37	33.2475
3819.26	33.1557
3821.15	33.0441
3823.04	32.5094
3824.93	32.2258
3826.82	31.8175
3828.7	31.3763
3830.59	31.097
3832.47	30.997
3834.36	31.0925
3836.24	31.209
3838.13	31.3755
3840.01	31.5715
3841.89	31.8141
3843.78	32.2217
3845.66	32.7697
3847.54	33.1048
3849.42	33.5828
3851.3	33.8019
3853.18	33.6124
3855.06	33.4849
3856.93	32.9897
3858.81	32.3711
3860.69	31.8046
3862.56	31.359
3864.44	30.9396
3866.31	30.743
3868.19	30.5949
3870.06	30.4894
3871.93	30.4177
3873.81	30.4744
3875.68	31.3653
3877.55	31.4426
3879.42	31.4478
3881.29	31.522
3883.16	31.5546
3885.03	31.9
3886.9	32.1336
3888.77	32.2005
3890.63	31.8536
3892.5	31.5067
3894.37	31.1369
3896.23	30.8318
3898.1	30.8508
3899.96	30.7503
3901.82	30.7974
3903.69	30.83
3905.55	30.8302
3907.41	30.7995
3909.27	30.7543
3911.13	30.6734
3912.99	30.3356
3914.85	30.1473
3916.71	30.0012
3918.57	29.8982
3920.43	29.9358
3922.28	30.8984
3924.14	31.6308
3926	32.0801
3927.85	32.3152
3929.71	32.3782
3931.56	32.2867
3933.41	32.0759
3935.27	31.7469
3937.12	31.3495
3938.97	30.7744
3940.82	30.0602
3942.67	29.6851
3944.52	29.4182
3946.37	30.5176
3948.22	30.4993
3950.07	30.4993
3951.92	30.5245
3953.77	30.5753
3955.61	30.6568
3957.46	30.7531
3959.3	30.8696
3961.15	30.9997
3962.99	31.1418
3964.84	31.2872
3966.68	31.4207
3968.52	31.5468
3970.36	31.6525
3972.2	31.762
3974.05	31.8655
3975.89	31.9682
3977.73	32.0683
3979.56	32.1658
3981.4	32.2522
3983.24	32.3325
3985.08	32.3987
3986.92	32.4534
3988.75	32.4928
3990.59	32.5285
3992.42	32.5258
3994.26	32.5365
3996.09	32.5256
3997.92	32.5149
3999.76	32.4764
