#Acq. time (s)=	60
#Accumulations=	2
#Range (cm-¹)=	80...1000
#Windows=	2
#Auto scanning=	Off
#Autofocus=	Off
#Macrospot=	Off
#AutoExposure=	Off
#Spike filter=	Multiple accum.
#Delay time (s)=	2
#Binning=	1
#Readout mode=	Signal
#DeNoise=	Standard
#ICS correction=	On
#Dark correction=	Off
#Inst. Process=	Off
#Detector Gain=	Best Dynamic
#Detector ADC=	50 kHz HS
#Detector temperature (°C)=	-60.09
#Instrument=	LabRAM HR Evol
#Detector=	SIN-EM FIVIS
#Objective=	x100_VIS
#Grating=	1800 (450-850nm)
#ND Filter=	10%
#Laser=	532nm_Edge
#Hole=	30.0125
#Temperature=	0
#Range=	Visible
#StageXY=	75x50mm Scan+
#StageZ=	Z motor
#X (µm)=	0
#Y (µm)=	0
#Z (µm)=	37.5
#Full time(mm:ss)=	4:17
#Project=	21_02_17
#Sample=	BU19_TS(1)
#Site=	
#Title=	BU19TS(1)-Ore1-inter_1800 (450-850nm)_532nm_Edge_10%_x100_VIS_H30um_60sX2
#Remark=	
#Date=	17.02.2021 18:04
#Acquired=	17.02.2021 18:04:27
80.1379	163.03
80.4605	163.444
80.7832	164.516
81.1058	165.445
81.4284	165.57
81.751	164.422
82.0736	163.51
82.3961	163.006
82.7166	162.422
83.0391	162.2
83.3617	162.715
83.6842	163.514
84.0067	164.663
84.3292	165.631
84.6517	167.168
84.9742	168.851
85.2945	170.562
85.617	172.465
85.9395	174.004
86.2619	174.716
86.5843	175.597
86.9068	176.546
87.2292	177.551
87.5494	178.583
87.8718	179.877
88.1942	180.891
88.5165	181.859
88.8389	182.569
89.1612	182.485
89.4814	181.928
89.8038	181.368
90.1261	180.93
90.4484	181.124
90.7706	181.202
91.0929	182.006
91.4131	182.856
91.7353	183.284
92.0575	183.673
92.3798	184.529
92.702	184.9
93.0242	185.928
93.3443	186.328
93.6665	186.4
93.9886	186.904
94.3108	187.318
94.6329	187.669
94.953	187.94
95.2751	188.051
95.5972	188.054
95.9193	187.926
96.2414	188.232
96.5614	189.083
96.8834	189.973
97.2055	190.96
97.5276	191.903
97.8496	192.849
98.1695	193.722
98.4915	194.479
98.8135	195.068
99.1355	195.535
99.4575	195.821
99.7774	195.864
100.099	195.657
100.421	195.317
100.743	194.949
101.063	194.589
101.385	193.897
101.707	193.361
102.029	192.952
102.348	193.277
102.67	193.917
102.992	195.026
103.314	196.164
103.636	197.36
103.956	198.501
104.277	199.55
104.599	200.414
104.921	201.184
105.241	201.887
105.562	202.425
105.884	202.86
106.204	201.689
106.526	200.408
106.847	199.849
107.169	199.416
107.489	200.329
107.81	200.497
108.132	200.265
108.454	200.017
108.773	199.714
109.095	199.638
109.417	199.373
109.736	199.309
110.058	197.799
110.379	197.589
110.701	197.924
111.02	198.886
111.342	199.488
111.663	200.196
111.983	200.652
112.304	201.326
112.626	202.011
112.948	201.554
113.267	201.021
113.588	200.514
113.91	199.974
114.229	199.692
114.551	199.404
114.872	199.282
115.191	199.214
115.513	199.273
115.834	199.407
116.154	199.568
116.475	199.555
116.796	199.942
117.116	200.23
117.437	200.998
117.758	201.795
118.078	202.279
118.399	202.931
118.72	203.074
119.039	203.291
119.361	203.219
119.682	203.081
120.001	202.237
120.322	201.543
120.644	200.542
120.963	200.219
121.284	200.083
121.605	199.756
121.924	199.276
122.246	198.447
122.567	197.675
122.886	197.088
123.207	196.738
123.526	196.069
123.847	195.409
124.168	194.604
124.487	193.791
124.808	193.507
125.13	193.509
125.448	193.552
125.77	193.676
126.089	193.831
126.41	193.998
126.731	194.214
127.05	194.402
127.371	194.638
127.689	194.824
128.01	194.997
128.331	195.11
128.65	195.274
128.971	195.429
129.29	195.595
129.611	195.748
129.932	195.401
130.251	193.979
130.572	192.102
130.89	187.858
131.211	186.687
131.532	185.766
131.851	186.179
132.172	187.628
132.491	188.857
132.811	191.022
133.13	193.089
133.451	194.228
133.772	195.347
134.09	195.356
134.411	194.014
134.73	192.819
135.051	191.662
135.369	190.689
135.69	189.762
136.011	189.064
136.329	188.25
136.65	188.141
136.969	188.189
137.289	188.463
137.608	188.639
137.928	188.811
138.247	188.91
138.568	188.994
138.886	189.009
139.207	188.818
139.525	188.575
139.846	188.073
140.166	187.519
140.485	186.657
140.805	185.76
141.124	184.81
141.444	183.928
141.763	183.717
142.083	183.695
142.402	184.015
142.722	184.819
143.041	185.227
143.361	184.714
143.679	184.054
144	184.045
144.318	184.122
144.639	183.201
144.957	182.154
145.277	180.939
145.596	179.564
145.916	178.199
146.234	177.046
146.555	175.62
146.873	174.208
147.193	172.966
147.511	171.809
147.832	170.952
148.15	170.561
148.47	170.227
148.788	169.88
149.109	169.622
149.427	169.171
149.747	168.075
150.065	168.21
150.383	168.545
150.704	169.027
151.022	169.458
151.342	169.813
151.66	170.149
151.98	170.214
152.298	170.282
152.618	170.205
152.936	170.096
153.256	168.653
153.574	167.307
153.892	167.283
154.213	166.54
154.531	166.132
154.851	165.67
155.169	165.377
155.489	165.393
155.807	165.182
156.124	164.447
156.444	164.894
156.762	165.326
157.082	165.778
157.4	165.718
157.72	164.853
158.038	163.509
158.356	161.991
158.676	160.753
158.994	159.58
159.314	158.654
159.631	157.246
159.949	156.836
160.269	156.984
160.587	156.83
160.907	156.701
161.224	156.653
161.542	156.36
161.862	155.657
162.18	154.894
162.5	154.317
162.817	154.07
163.135	153.981
163.455	154.183
163.772	154.556
164.092	155.181
164.41	155.951
164.727	157.132
165.047	158.424
165.365	159.842
165.682	160.798
166.002	161.124
166.32	161.085
166.639	161.269
166.957	161.543
167.274	161.8
167.594	161.433
167.912	161.343
168.229	161.256
168.549	161.055
168.866	160.847
169.184	161.092
169.503	161.765
169.821	161.683
170.138	161.417
170.458	161.131
170.775	160.903
171.092	160.686
171.412	160.548
171.729	160.464
172.047	160.463
172.366	160.478
172.684	160.58
173.001	160.724
173.32	160.946
173.638	161.249
173.955	161.645
174.274	162.126
174.592	162.77
174.909	163.831
175.228	164.889
175.546	165.971
175.863	166.059
176.182	165.722
176.499	166.033
176.817	166.479
177.134	167.713
177.453	168.029
177.77	167.731
178.087	167.25
178.407	166.779
178.724	167.074
179.041	168.139
179.358	169.943
179.677	170.634
179.994	170.791
180.312	171.068
180.631	171.893
180.948	172.787
181.265	173.586
181.582	174.111
181.901	174.435
182.218	173.84
182.535	173.129
182.852	172.423
183.171	171.879
183.488	171.556
183.805	171.342
184.122	171.271
184.441	171.352
184.758	171.586
185.075	172.059
185.392	172.756
185.711	173.623
186.028	174.699
186.345	175.898
186.662	177.372
186.981	178.862
187.298	180.003
187.614	179.916
187.931	179.753
188.25	179.586
188.567	179.583
188.884	179.775
189.201	180.072
189.517	180.559
189.836	181.161
190.153	181.947
190.47	182.843
190.786	183.904
191.105	185.129
191.422	185.829
191.739	185.492
192.055	185.914
192.372	186.798
192.691	187.552
193.008	188.188
193.324	188.533
193.641	188.013
193.957	187.178
194.274	187.771
194.593	188.822
194.909	189.833
195.226	190.801
195.543	191.509
195.859	192.22
196.178	191.413
196.494	190.246
196.811	188.963
197.127	188.915
197.444	188.732
197.76	188.769
198.079	188.875
198.395	189.13
198.712	189.562
199.028	189.998
199.345	190.577
199.661	191.212
199.98	192.205
200.296	193.168
200.613	193.587
200.929	193.517
201.245	193.663
201.562	193.923
201.878	194.33
202.197	194.825
202.513	195.546
202.829	196.437
203.146	197.147
203.462	197.775
203.778	197.088
204.094	196.688
204.411	196.334
204.729	196.338
205.045	196.383
205.362	196.588
205.678	196.823
205.994	197.083
206.31	197.39
206.626	197.719
206.943	198.116
207.259	198.492
207.577	198.843
207.893	199.008
208.209	199.16
208.525	199.297
208.842	199.441
209.158	199.525
209.474	199.672
209.79	200.177
210.106	201.161
210.422	203.814
210.74	204.348
211.056	203.993
211.372	203.245
211.688	202.115
212.004	201.727
212.32	201.643
212.636	201.086
212.952	201.053
213.268	201.453
213.584	200.557
213.9	199.896
214.216	199.526
214.532	199.86
214.848	201.148
215.164	204.235
215.482	206.447
215.798	206.381
216.114	206.191
216.429	204.748
216.745	204.311
217.061	204.412
217.377	204.462
217.693	204.686
218.009	204.833
218.324	205.57
218.64	206.338
218.956	207.493
219.272	208.567
219.588	209.74
219.903	210.924
220.219	212.14
220.535	213.34
220.85	214.525
221.166	215.535
221.482	215.212
221.798	214.405
222.113	213.827
222.429	212.887
222.744	211.748
223.06	210.179
223.376	209.425
223.691	209.189
224.007	209.633
224.323	210.065
224.638	210.925
224.954	211.872
225.269	212.461
225.585	211.312
225.9	210.523
226.216	209.905
226.531	209.741
226.847	209.893
227.162	210.231
227.478	210.077
227.793	210.088
228.109	210.184
228.424	211.41
228.74	212.793
229.055	214.195
229.371	215.607
229.686	216.946
230.001	218.167
230.317	219.289
230.632	220.334
230.948	221.23
231.263	221.556
231.578	221.726
231.894	222.209
232.207	222.643
232.522	222.59
232.837	222.667
233.153	222.002
233.468	221.61
233.783	221.576
234.099	221.984
234.414	222.193
234.729	222.066
235.044	222.274
235.36	222.522
235.675	222.61
235.99	222.657
236.305	222.706
236.618	222.654
236.933	222.479
237.249	222.604
237.564	222.702
237.879	222.738
238.194	222.543
238.509	221.966
238.824	221.924
239.139	222.411
239.454	223.335
239.769	224.83
240.082	225.971
240.397	226.874
240.712	227.715
241.027	229.17
241.342	230.621
241.657	231.178
241.972	231.877
242.287	232.415
242.602	232.704
242.915	232.885
243.23	232.937
243.545	233.045
243.86	232.155
244.175	230.175
244.49	228.022
244.805	226.232
245.118	224.775
245.433	223.823
245.747	223.379
246.062	224.263
246.377	225.42
246.692	226.559
247.007	227.531
247.319	228.33
247.634	229.385
247.949	229.541
248.264	229.598
248.579	229.559
248.893	229.474
249.206	229.318
249.521	229.133
249.835	228.9
250.15	228.648
250.465	228.387
250.78	227.21
251.092	225.921
251.407	225.187
251.722	224.31
252.036	224.158
252.351	224.459
252.665	225.136
252.978	226.488
253.293	226.449
253.607	226.209
253.922	225.933
254.236	225.655
254.549	225.375
254.863	225.079
255.178	224.805
255.492	224.541
255.807	224.28
256.119	224.067
256.434	223.821
256.748	223.61
257.063	223.39
257.375	223.187
257.69	222.988
258.004	222.859
258.319	222.902
258.633	222.982
258.945	223.249
259.26	223.441
259.574	223.646
259.889	223.748
260.201	223.268
260.515	222.573
260.83	221.71
261.144	220.828
261.456	220.005
261.77	221.736
262.085	221.265
262.399	220.973
262.711	221.332
263.026	221.928
263.34	222.525
263.654	223.075
263.966	223.649
264.28	224.098
264.595	224.753
264.909	225.763
265.221	226.325
265.535	227.036
265.849	227.439
266.164	227.322
266.476	226.883
266.79	225.512
267.104	224.242
267.416	222.813
267.73	221.98
268.044	221.113
268.358	220.247
268.67	218.923
268.984	218.237
269.298	217.689
269.61	217.659
269.924	217.979
270.239	216.477
270.55	216.028
270.864	216.105
271.178	217.986
271.492	217.34
271.804	216.398
272.118	215.22
272.432	213.693
272.744	212.084
273.058	210.331
273.372	209.346
273.684	210.827
273.998	212.346
274.312	213.349
274.623	213.581
274.937	213.409
275.251	213.879
275.563	214.52
275.877	214.289
276.191	214.21
276.502	214.053
276.816	214.085
277.13	213.375
277.442	212.456
277.755	211.541
278.069	210.688
278.381	209.925
278.695	209.334
279.006	209.211
279.32	209.279
279.634	209.554
279.945	210.359
280.259	211.231
280.573	212.143
280.884	213.061
281.198	213.304
281.512	212.842
281.823	211.813
282.137	211.03
282.448	210.038
282.762	209.452
283.076	209.457
283.387	209.415
283.701	210.013
284.012	211.367
284.326	212.724
284.639	213.922
284.951	213.86
285.264	212.992
285.576	212.014
285.889	210.899
286.203	209.734
286.514	208.756
286.827	208.988
287.139	209.208
287.452	209.735
287.766	210.225
288.077	209.917
288.391	209.053
288.702	208.098
289.015	207.485
289.327	207.166
289.64	207.049
289.953	206.984
290.265	207.231
290.578	207.622
290.889	208.199
291.202	208.544
291.514	207.543
291.827	207.203
292.138	207.151
292.451	207.308
292.765	207.632
293.076	207.996
293.389	208.088
293.7	207.854
294.014	208.631
294.325	209.034
294.638	209.334
294.949	209.787
295.262	210.203
295.573	210.653
295.886	211.051
296.198	211.454
296.511	211.833
296.824	212.159
297.135	212.443
297.448	212.646
297.759	212.521
298.072	211.572
298.383	210.162
298.696	209.819
299.007	210.729
299.32	210.767
299.631	210.253
299.944	209.509
300.255	208.835
300.568	208.766
300.879	208.727
301.192	208.491
301.503	208.144
301.816	207.668
302.127	207.766
302.44	208.345
302.75	209.029
303.063	209.668
303.374	210.161
303.685	210.461
303.998	210.507
304.309	210.511
304.622	209.847
304.932	208.995
305.245	208.046
305.556	207.126
305.869	206.563
306.18	206.024
306.492	205.647
306.803	205.337
307.116	205.146
307.427	204.987
307.737	204.891
308.05	205.053
308.361	205.34
308.673	205.597
308.984	205.787
309.297	205.624
309.607	205.426
309.92	205.318
310.231	205.136
310.541	205.166
310.854	205.29
311.164	205.312
311.477	205.276
311.788	205.145
312.1	204.821
312.411	204.411
312.721	203.777
313.034	203.719
313.344	203.656
313.657	203.819
313.967	203.866
314.278	203.787
314.59	203.594
314.901	203.089
315.213	202.568
315.524	201.918
315.834	199.806
316.147	197.393
316.457	195.642
316.77	193.823
317.08	192.511
317.39	191.66
317.703	191.271
318.013	191.63
318.325	191.926
318.636	191.786
318.946	191.681
319.258	191.858
319.569	192.252
319.879	192.901
320.191	193.681
320.502	194.445
320.812	194.574
321.124	193.768
321.434	192.427
321.747	191.318
322.057	190.279
322.367	189.298
322.679	188.035
322.989	186.967
323.3	185.891
323.612	184.951
323.922	183.207
324.232	183.382
324.544	183.419
324.854	183.685
325.164	184.025
325.477	182.811
325.787	182.602
326.097	182.64
326.409	183.015
326.719	183.628
327.029	184.576
327.341	185.162
327.651	186.206
327.961	187.191
328.273	188.197
328.583	187.697
328.893	186.739
329.203	185.829
329.515	185.198
329.825	184.945
330.135	185.043
330.447	185.214
330.757	185.699
331.067	186.275
331.379	186.983
331.689	187.832
331.998	188.704
332.308	189.694
332.62	190.658
332.93	191.375
333.24	192.039
333.55	192.631
333.862	192.636
334.171	191.999
334.481	189.524
334.793	188.724
335.103	188.052
335.413	187.701
335.722	187.523
336.034	187.179
336.344	187.118
336.654	187.549
336.963	189.01
337.275	190.663
337.585	192.3
337.894	193.449
338.204	193.753
338.516	193.855
338.825	193.877
339.135	194.271
339.445	194.638
339.756	195.069
340.066	195.551
340.375	195.499
340.685	195.034
340.995	194.62
341.306	194.198
341.616	193.85
341.925	193.451
342.235	193.173
342.546	192.863
342.856	192.655
343.165	192.413
343.475	192.274
343.784	191.941
344.096	191.429
344.405	191.331
344.715	191.715
345.024	192.233
345.334	192.78
345.645	193.248
345.954	193.55
346.264	192.989
346.573	193.031
346.883	193.068
347.194	193.805
347.503	194.718
347.813	194.518
348.122	194.166
348.431	193.702
348.741	193.096
349.052	192.629
349.361	192.215
349.671	192.07
349.98	192.083
350.289	192.146
350.598	192.4
350.91	192.79
351.219	193.371
351.528	194.208
351.837	195.223
352.146	196.667
352.456	197.431
352.765	197.612
353.076	197.816
353.385	197.885
353.694	198.058
354.003	198.357
354.313	198.83
354.622	199.283
354.931	199.898
355.242	200.565
355.551	201.42
355.86	202.277
356.169	201.782
356.478	201.417
356.787	200.74
357.096	198.459
357.405	197.696
357.714	198.92
358.025	199.526
358.334	201.415
358.643	201.226
358.952	199.692
359.261	198.334
359.57	197.195
359.879	196.297
360.188	195.562
360.497	195.148
360.806	194.894
361.117	194.934
361.426	195.171
361.734	195.756
362.043	196.515
362.352	197.467
362.661	198.696
362.97	199.98
363.279	201.356
363.587	202.148
363.896	202.748
364.205	202.811
364.514	202.815
364.823	202.654
365.133	202.398
365.442	202.079
365.751	201.923
366.06	201.765
366.368	201.602
366.677	201.543
366.986	201.512
367.294	201.635
367.603	201.8
367.912	202.341
368.22	202.961
368.529	204.065
368.838	204.712
369.146	204.867
369.455	205.093
369.763	205.255
370.072	205.38
370.381	205.509
370.689	205.725
370.998	205.9
371.306	206.043
371.615	206.246
371.923	208.112
372.232	207.621
372.54	206.882
372.849	206.257
373.157	205.809
373.466	205.839
373.774	206.33
374.083	207.263
374.391	208.447
374.7	209.569
375.008	210.451
375.316	211.129
375.625	212.328
375.933	213.65
376.242	214.763
376.55	215.355
376.858	215.811
377.167	215.996
377.475	215.978
377.783	215.667
378.092	215.385
378.4	214.892
378.708	214.311
379.017	214.512
379.325	214.252
379.633	214.083
379.941	215.373
380.25	216.339
380.558	217.611
380.866	218.113
381.174	218.333
381.483	218.498
381.791	218.685
382.099	218.976
382.407	219.228
382.715	219.516
383.021	219.821
383.33	220.188
383.638	220.628
383.946	221.102
384.254	221.602
384.562	222.153
384.87	222.719
385.178	223.275
385.486	223.399
385.794	223.339
386.102	223.662
386.41	224.343
386.718	225.945
387.024	226.463
387.332	226.914
387.64	227.315
387.948	227.473
388.256	227.568
388.564	227.68
388.872	227.867
389.18	228.55
389.488	228.489
389.796	228.56
390.102	230.033
390.41	232.619
390.718	235.439
391.026	234.488
391.334	234.355
391.641	234.272
391.949	234.876
392.257	235.494
392.563	236.342
392.871	237.297
393.178	238.247
393.486	239.214
393.794	240.729
394.102	242.575
394.41	244.438
394.717	245.712
395.023	246.36
395.331	246.213
395.639	246.109
395.946	245.964
396.254	246.375
396.562	246.805
396.867	247.917
397.175	248.645
397.483	249.667
397.79	250.463
398.098	251.27
398.406	252.366
398.711	253.786
399.019	255.516
399.326	256.576
399.634	256.984
399.942	257.491
400.249	258.247
400.555	259.013
400.862	259.348
401.17	259.066
401.477	258.823
401.785	258.435
402.09	258.233
402.398	258.445
402.705	258.879
403.013	260.286
403.32	261.635
403.626	263.422
403.933	264.889
404.241	266.741
404.548	268.881
404.855	271.494
405.161	273.794
405.468	275.64
405.776	276.965
406.083	278.539
406.388	280.72
406.696	282.592
407.003	284.137
407.31	285.662
407.618	286.706
407.923	287.589
408.23	288.289
408.538	288.886
408.845	289.775
409.15	290.637
409.457	292.074
409.765	293.845
410.072	295.463
410.377	296.112
410.684	297.277
410.991	298.772
411.299	299.63
411.604	300.959
411.911	302.216
412.218	302.672
412.525	303.211
412.83	303.805
413.138	304.496
413.445	305.25
413.75	306.118
414.057	307.119
414.364	308.164
414.671	309.31
414.976	310.581
415.283	311.932
415.59	313.251
415.895	314.465
416.202	314.735
416.509	315.053
416.816	315.253
417.121	315.476
417.428	316.044
417.735	316.797
418.04	317.645
418.347	318.717
418.654	320.044
418.959	321.926
419.266	324.377
419.573	326.761
419.878	328.127
420.185	329.232
420.492	330.089
420.798	330.855
421.103	330.946
421.41	331.596
421.717	331.777
422.022	332.208
422.329	333.326
422.636	334.724
422.94	335.793
423.247	337.525
423.554	339.155
423.859	340.004
424.165	340.21
424.47	340.562
424.777	341.34
425.084	342.17
425.388	343.157
425.695	344.226
426.002	345.32
426.306	346.656
426.613	348.231
426.92	349.997
427.224	352.25
427.531	354.576
427.836	356.701
428.142	358.064
428.449	358.323
428.753	357.791
429.06	357.525
429.367	358.111
429.671	358.8
429.978	359.006
430.282	358.452
430.589	357.289
430.895	356.466
431.2	356.546
431.507	357.163
431.811	357.834
432.117	358.34
432.424	358.964
432.728	359.815
433.035	360.887
433.339	362.518
433.646	364.239
433.952	365.787
434.257	367.067
434.563	365.115
434.867	363.962
435.174	363.939
435.478	363.747
435.785	363.621
436.091	363.359
436.395	363.517
436.702	363.261
437.006	362.099
437.312	360.903
437.617	360.323
437.923	359.631
438.227	358.46
438.533	357.548
438.84	357.174
439.144	358.092
439.45	359.056
439.754	360.067
440.061	360.599
440.365	360.904
440.671	360.393
440.975	360.738
441.281	360.955
441.586	360.443
441.892	358.827
442.196	358.02
442.502	357.774
442.806	357.812
443.112	358.318
443.418	358.872
443.722	359.325
444.029	359.143
444.333	358.401
444.639	357.622
444.943	356.79
445.249	355.955
445.553	354.698
445.859	353.608
446.163	352.073
446.469	350.373
446.773	348.759
447.079	347.181
447.383	345.651
447.689	344.272
447.993	342.971
448.297	341.698
448.603	340.522
448.907	339.404
449.212	338.412
449.516	337.461
449.822	336.74
450.126	336.061
450.432	335.484
450.736	334.98
451.042	334.596
451.346	334.311
451.651	334.054
451.955	333.645
452.261	331.644
452.565	329.607
452.869	327.365
453.174	325.128
453.478	322.939
453.784	320.954
454.088	319.017
454.393	317.176
454.697	315.432
455.003	313.797
455.307	312.34
455.61	310.985
455.916	309.817
456.22	308.758
456.525	307.853
456.829	307.11
457.133	306.629
457.438	306.365
457.742	306.256
458.048	306.16
458.351	305.936
458.657	305.174
458.96	304.121
459.264	302.874
459.569	301.601
459.873	300.359
460.179	298.974
460.482	296.963
460.786	294.939
461.091	292.881
461.395	291.234
461.698	289.866
462.004	288.772
462.307	288.104
462.613	287.605
462.916	287.46
463.219	287.53
463.525	287.899
463.828	288.086
464.132	286.696
464.437	284.971
464.741	283.57
465.046	282.281
465.349	281.045
465.653	279.888
465.958	278.331
466.261	277.136
466.565	276.014
466.87	274.467
467.173	273.334
467.477	272.644
467.782	272.015
468.085	270.864
468.388	270.279
468.694	269.829
468.997	269.413
469.3	269.104
469.605	268.865
469.909	268.601
470.212	268.383
470.517	268.144
470.82	267.679
471.123	267.103
471.429	266.515
471.732	265.894
472.035	265.297
472.34	264.691
472.643	263.935
472.946	263.184
473.251	262.403
473.555	261.638
473.858	260.926
474.161	259.677
474.466	258.255
474.769	257.125
475.072	256.098
475.377	255.469
475.68	254.831
475.983	253.786
476.286	252.994
476.591	252.44
476.894	251.653
477.197	252.02
477.502	252.418
477.805	252.802
478.108	254.182
478.411	254.016
478.716	253.954
479.019	253.908
479.321	253.775
479.624	253.054
479.929	251.767
480.232	250.213
480.535	248.722
480.838	247.559
481.143	247.006
481.445	247.064
481.748	247.906
482.051	249.035
482.356	249.618
482.659	250.111
482.961	250.381
483.264	250.06
483.569	249.753
483.872	249.452
484.174	249.212
484.477	248.979
484.78	248.767
485.085	248.591
485.387	248.443
485.69	248.404
485.993	248.388
486.297	248.37
486.6	247.76
486.903	246.403
487.205	245.662
487.508	245.147
487.813	244.492
488.115	243.646
488.418	243.074
488.72	242.381
489.023	242.691
489.326	242.982
489.63	242.296
489.933	241.34
490.235	240.485
490.538	239.664
490.84	238.867
491.145	238.122
491.447	237.459
491.75	236.929
492.052	236.492
492.355	236.193
492.657	236.163
492.962	236.515
493.264	237.053
493.566	237.748
493.869	238.495
494.171	239.331
494.474	240.159
494.776	240.459
495.08	240.601
495.383	240.574
495.685	240.011
495.988	238.788
496.29	237.369
496.592	235.979
496.895	234.92
497.199	234.449
497.501	234.17
497.803	234.007
498.106	233.939
498.408	234.265
498.71	234.913
499.012	228.195
499.315	228.023
499.619	227.975
499.921	230.522
500.223	233.75
500.526	235.832
500.828	235.677
501.13	234.979
501.432	234.193
501.734	233.232
502.036	232.147
502.338	231.023
502.643	229.788
502.945	228.847
503.247	228.515
503.549	227.724
503.851	226.806
504.153	225.875
504.455	224.737
504.757	224.185
505.059	223.965
505.361	224.458
505.663	225.106
505.965	225.531
506.267	225.732
506.571	225.956
506.873	226.205
507.175	226.469
507.477	226.748
507.779	227.015
508.081	227.331
508.383	227.548
508.685	227.44
508.987	225.83
509.289	224.596
509.591	222.441
509.893	220.044
510.194	218.21
510.496	217.408
510.798	216.679
511.1	217.271
511.402	218.365
511.704	220.871
512.005	223.694
512.307	225.458
512.609	225.091
512.911	223.562
513.213	222.528
513.514	220.902
513.816	218.497
514.118	216.347
514.42	215.599
514.721	215.73
515.023	215.005
515.325	214.644
515.626	215.205
515.928	216.268
516.23	217.452
516.531	218.615
516.833	219.616
517.135	220.501
517.436	221.058
517.738	220.774
518.04	220.238
518.341	219.474
518.643	218.304
518.944	217.539
519.246	216.897
519.548	216.79
519.849	216.79
520.151	216.987
520.452	217.24
520.754	216.934
521.055	216.375
521.357	215.69
521.658	215.101
521.96	214.619
522.261	214.174
522.563	213.979
522.864	213.963
523.166	214.112
523.467	214.493
523.766	215.283
524.068	216.011
524.369	216.7
524.671	217.339
524.972	217.426
525.273	217.601
525.575	217.664
525.876	217.65
526.177	217.545
526.479	217.339
526.78	217.12
527.081	216.724
527.383	215.518
527.682	213.564
527.983	211.981
528.284	210.852
528.586	209.878
528.887	209.473
529.188	209.314
529.489	209.295
529.791	209.258
530.092	208.661
530.393	208.253
530.692	208.112
530.993	208.26
531.295	208.629
531.596	209.233
531.897	210.192
532.198	211.161
532.499	212.046
532.8	212.841
533.099	212.792
533.401	212.47
533.702	211.755
534.003	211.024
534.304	210.284
534.605	209.784
534.906	209.375
535.205	209.105
535.506	208.998
535.807	209.214
536.108	209.541
536.409	210.171
536.71	210.827
537.009	211.748
537.31	212.702
537.611	213.67
537.912	214.628
538.213	215.586
538.514	216.383
538.813	217.056
539.114	217.674
539.414	218.213
539.715	217.88
540.016	217.787
540.317	217.365
540.616	216.604
540.917	216.379
541.218	215.937
541.518	215.555
541.819	215.916
542.118	216.669
542.419	217.187
542.72	218.354
543.021	217.837
543.321	217.304
543.62	216.778
543.921	216.245
544.221	216.095
544.522	215.882
544.823	215.744
545.122	215.697
545.422	215.74
545.723	216.026
546.024	216.465
546.322	216.998
546.623	217.643
546.924	217.886
547.224	217.653
547.523	217.602
547.824	217.502
548.124	217.488
548.425	217.398
548.723	216.983
549.024	216.818
549.325	216.772
549.625	216.882
549.924	217.113
550.224	217.971
550.525	219.123
550.825	220.369
551.124	221.779
551.424	222.997
551.725	224.171
552.025	224.968
552.324	224.931
552.624	224.696
552.925	224.6
553.225	224.574
553.524	224.489
553.824	224.383
554.124	223.891
554.423	223.688
554.723	223.353
555.024	222.686
555.324	222.274
555.622	222.45
555.923	222.613
556.223	223.201
556.521	224.11
556.822	225.205
557.122	226.28
557.42	227.42
557.721	228.129
558.021	228.576
558.319	229.218
558.619	230.073
558.92	231.156
559.218	232.641
559.518	233.673
559.818	234.175
560.117	234.768
560.417	235.368
560.717	235.916
561.015	236.334
561.315	236.496
561.616	236.673
561.914	236.825
562.214	237.006
562.514	237.579
562.812	238.344
563.112	239.262
563.412	240.378
563.71	241.575
564.01	242.672
564.311	243.475
564.609	243.9
564.909	244.27
565.207	244.626
565.507	244.966
565.807	245.169
566.105	245.113
566.405	245.018
566.705	244.788
567.003	244.689
567.303	245.195
567.601	245.995
567.901	246.964
568.201	248.235
568.499	249.667
568.799	251.298
569.096	252.86
569.396	254.301
569.696	255.551
569.994	256.381
570.294	257.009
570.592	257.332
570.892	257.442
571.192	257.365
571.49	257.369
571.789	257.358
572.087	256.894
572.387	256.631
572.687	256.524
572.985	258.07
573.284	260.008
573.582	261.582
573.882	262.872
574.18	264.219
574.479	265.648
574.777	267.134
575.077	268.828
575.377	270.045
575.674	270.807
575.974	271.393
576.272	271.888
576.571	272.3
576.644	272.461
576.946	272.689
577.25	272.965
577.551	273.433
577.853	273.937
578.155	274.372
578.456	274.654
578.76	275.04
579.061	275.5
579.363	276.14
579.665	277.702
579.966	280.346
580.27	281.953
580.571	283.467
580.873	284.088
581.175	284.745
581.476	285.476
581.78	286.231
582.081	287.066
582.383	288.454
582.684	289.993
582.986	291.581
583.289	289.567
583.591	289.906
583.892	291.128
584.194	293.207
584.495	295.777
584.797	298.079
585.1	298.512
585.401	298.964
585.703	299.455
586.004	300.273
586.306	301.413
586.607	301.62
586.91	300.633
587.212	299.949
587.513	299.507
587.814	299.312
588.116	299.744
588.417	300.472
588.72	301.471
589.022	302.677
589.323	303.978
589.624	305.157
589.925	306.554
590.227	308.452
590.528	310.466
590.831	312.478
591.133	314.407
591.434	316.417
591.735	317.864
592.036	319.059
592.337	320.007
592.638	320.789
592.94	321.545
593.243	322.233
593.544	322.887
593.845	323.615
594.146	324.744
594.447	325.82
594.748	326.856
595.05	328.009
595.351	329.409
595.652	331.018
595.953	333.013
596.256	336.145
596.557	339.186
596.858	340.622
597.159	341.456
597.46	342.257
597.761	343.214
598.062	344.225
598.363	345.143
598.664	346.415
598.965	347.706
599.266	349.049
599.569	350.422
599.87	351.699
600.171	352.945
600.472	354.358
600.773	355.783
601.073	357.157
601.374	358.52
601.675	359.903
601.976	361.21
602.277	362.484
602.578	363.634
602.879	364.71
603.179	365.414
603.48	365.979
603.781	366.36
604.082	366.636
604.383	367.101
604.683	367.987
604.986	368.918
605.287	369.848
605.588	370.567
605.888	371.06
606.189	371.136
606.49	370.874
606.791	370.264
607.091	370.47
607.392	371.133
607.693	372.084
607.993	373.128
608.294	374.282
608.595	375.592
608.895	376.812
609.196	378.184
609.497	379.662
609.797	381.229
610.098	382.934
610.398	384.787
610.699	386.751
610.999	388.808
611.3	390.764
611.601	392.553
611.901	393.358
612.202	392.948
612.502	392.185
612.803	391.303
613.103	390.622
613.404	390.005
613.704	389.368
614.005	388.8
614.305	388.273
614.605	387.729
614.906	387.252
615.206	386.86
615.507	386.528
615.807	386.338
616.108	386.203
616.406	386.154
616.706	386.142
617.007	386.23
617.307	386.267
617.607	386.586
617.908	387.001
618.208	387.601
618.508	388.222
618.809	388.557
619.109	388.824
619.409	388.235
619.71	387.928
620.01	388.367
620.31	389.125
620.61	389.722
620.911	390.2
621.211	390.183
621.509	389.8
621.809	389.246
622.109	388.17
622.41	386.954
622.71	385.693
623.01	384.379
623.31	383.047
623.61	382.287
623.91	381.257
624.211	380.289
624.511	379.254
624.811	378.292
625.109	376.262
625.409	374.39
625.709	374.453
626.009	374.05
626.309	373.677
626.609	373.351
626.909	371.465
627.209	369.444
627.509	367.618
627.807	366.258
628.107	365.134
628.407	364.649
628.707	365.149
629.007	367.103
629.307	367.096
629.607	366.475
629.907	365.1
630.205	363.456
630.505	361.218
630.805	358.236
631.105	354.201
631.405	352.668
631.705	351.235
632.005	349.905
632.302	348.437
632.602	347.46
632.902	346.5
633.202	345.695
633.502	344.899
633.802	344.145
634.101	343.412
634.399	342.611
634.699	341.906
634.999	340.997
635.298	340.143
635.598	339.113
635.898	338.026
636.196	336.758
636.495	335.582
636.795	334.679
637.095	333.792
637.395	333.428
637.692	331.127
637.992	329.265
638.292	327.644
638.591	326.416
638.891	325.313
639.19	324.284
639.488	323.51
639.788	322.963
640.087	322.656
640.387	322.676
640.687	322.158
640.984	321.077
641.284	319.596
641.583	318.205
641.883	316.729
642.18	315.256
642.48	313.88
642.779	312.392
643.079	310.988
643.378	309.838
643.676	308.911
643.975	308.492
644.275	308.33
644.574	309.006
644.872	309.591
645.171	310.137
645.471	309.719
645.77	308.914
646.067	307.858
646.367	307.126
646.666	306.468
646.966	305.604
647.263	304.799
647.562	304.184
647.862	305.226
648.161	303.782
648.458	302.178
648.758	300.288
649.057	298.239
649.356	296.193
649.654	294.119
649.953	291.643
650.252	289.439
650.551	288.789
650.849	289.052
651.148	291.351
651.447	291.687
651.746	291.508
652.043	291.262
652.343	290.912
652.642	290.436
652.939	290.002
653.238	289.631
653.537	289.178
653.835	288.807
654.134	288.41
654.433	287.934
654.732	287.365
655.029	286.754
655.328	286.056
655.627	285.312
655.924	284.485
656.223	283.631
656.522	282.752
656.82	281.67
657.119	280.504
657.418	279.158
657.715	277.754
658.014	276.41
658.313	275.043
658.61	273.668
658.909	272.388
659.208	271.213
659.505	270.497
659.803	270.463
660.102	270.585
660.399	270.712
660.698	271.299
660.997	271.838
661.294	272.318
661.593	272.661
661.892	272.827
662.189	272.881
662.488	272.652
662.786	272.077
663.083	271.051
663.382	270.022
663.681	269.058
663.978	268.152
664.277	266.49
664.573	264.75
664.872	262.868
665.171	261.283
665.468	260.365
665.767	259.377
666.065	258.434
666.362	257.523
666.661	256.803
666.957	255.798
667.256	254.837
667.555	253.824
667.852	252.551
668.15	251.393
668.447	250.619
668.746	249.939
669.044	249.256
669.341	248.904
669.64	248.309
669.936	247.405
670.235	246.417
670.533	245.559
670.83	244.13
671.128	242.738
671.425	241.674
671.724	240.973
672.022	240.347
672.319	239.832
672.617	238.596
672.914	237.118
673.212	235.635
673.509	234.146
673.807	232.734
674.106	231.798
674.402	231.969
674.701	232.07
674.997	232.153
675.296	231.999
675.592	231.691
675.891	231.1
676.187	230.386
676.485	229.438
676.784	228.36
677.08	227.126
677.378	225.712
677.675	224.14
677.973	222.295
678.27	220.429
678.568	218.66
678.864	217.523
679.163	216.611
679.459	216.559
679.757	216.936
680.053	216.997
680.352	216.351
680.648	215.61
680.946	214.787
681.242	213.951
681.541	213.084
681.839	212.227
682.135	211.376
682.433	210.57
682.73	209.809
683.028	209.146
683.324	208.512
683.622	208.001
683.918	207.426
684.216	206.959
684.513	206.478
684.811	206.053
685.107	205.685
685.403	205.363
685.701	205.151
685.997	204.982
686.295	204.939
686.591	204.846
686.889	203.868
687.185	203.076
687.483	202.552
687.779	202.256
688.078	202.228
688.374	202.358
688.672	202.754
688.968	203.122
689.266	201.511
689.562	200.581
689.859	199.401
690.155	198.217
690.451	197.293
690.749	196.601
691.045	195.96
691.343	195.425
691.639	194.931
691.937	194.447
692.233	194.039
692.529	193.68
692.827	193.285
693.122	193.08
693.42	192.918
693.716	192.786
694.014	192.691
694.31	192.595
694.606	192.674
694.903	192.353
695.199	191.972
695.497	191.611
695.793	191.108
696.091	190.483
696.386	189.893
696.682	189.327
696.98	188.837
697.276	188.477
697.573	188.09
697.869	187.971
698.165	187.913
698.462	187.587
698.758	186.82
699.056	186.456
699.351	186.151
699.647	186.035
699.945	186.048
700.24	186.36
700.536	186.472
700.833	185.754
701.129	184.902
701.427	183.994
701.722	182.964
702.018	181.957
702.315	181.3
702.611	180.784
702.906	180.251
703.204	179.795
703.499	179.38
703.797	178.982
704.092	178.627
704.388	178.281
704.685	177.969
704.981	177.097
705.276	176.116
705.574	175.133
705.869	174.119
706.165	173.165
706.462	172.201
706.758	171.12
707.053	170.061
707.35	169.004
707.646	168.093
707.941	168.09
708.238	168.66
708.534	169.108
708.829	169.546
709.126	169.885
709.422	169.946
709.717	170.011
710.012	169.924
710.31	169.695
710.605	169.318
710.9	168.761
711.198	168.188
711.493	167.227
711.788	166.245
712.085	165.217
712.381	164.18
712.676	163.168
712.973	162.154
713.268	161.422
713.563	160.939
713.859	160.597
714.156	160.33
714.451	160.19
714.746	160.164
715.041	160.164
715.338	160.21
715.633	160.284
715.929	160.392
716.226	160.464
716.521	160.594
716.816	160.389
717.111	160.4
717.408	160.383
717.703	160.345
717.998	160.184
718.293	159.967
718.59	159.648
718.885	159.173
719.18	158.144
719.475	156.655
719.772	155.387
720.067	154.174
720.362	153.062
720.657	152.187
720.954	151.624
721.249	151.221
721.544	150.948
721.839	151.155
722.134	151.433
722.431	151.756
722.725	152.129
723.02	152.504
723.315	152.816
723.612	153.114
723.907	153.315
724.202	153.496
724.497	153.662
724.791	153.613
725.088	153.475
725.383	153.284
725.678	152.997
725.973	152.727
726.267	152.379
726.564	151.987
726.859	151.622
727.154	151.184
727.448	150.716
727.743	150.251
728.04	149.766
728.335	149.3
728.629	148.813
728.924	148.354
729.219	147.879
729.513	147.492
729.81	147.041
730.105	146.717
730.399	146.506
730.694	146.296
730.989	146.073
731.283	145.875
731.58	145.75
731.874	145.664
732.169	145.637
732.464	145.608
732.758	145.719
733.053	145.816
733.349	145.881
733.644	145.914
733.938	146.045
734.233	146.017
734.527	145.7
734.822	146.328
735.116	146.438
735.411	146.544
735.707	146.669
736.002	146.788
736.296	146.898
736.591	146.991
736.885	147.076
737.179	147.141
737.474	147.191
737.768	147.196
738.065	147.164
738.359	147.037
738.653	146.942
738.948	146.743
739.242	146.532
739.536	145.488
739.831	144.583
740.125	143.75
740.419	143.051
740.714	142.487
741.01	142.009
741.304	141.683
741.599	141.412
741.893	141.253
742.187	141.174
742.481	141.186
742.776	140.654
743.07	140.057
743.364	139.669
743.658	139.361
743.952	139.192
744.247	139.207
744.543	139.269
744.837	139.372
745.131	139.502
745.425	139.649
745.719	139.806
746.013	139.61
746.308	139.642
746.602	140.026
746.896	140.343
747.19	140.19
747.484	140.017
747.778	139.841
748.072	139.629
748.366	139.403
748.66	139.223
748.954	138.805
749.248	138.39
749.542	136.478
749.836	131.874
750.13	129.152
750.424	135.335
750.718	136.214
751.012	135.867
751.306	135.62
751.6	135.705
751.894	135.798
752.188	136.108
752.482	136.502
752.778	136.968
753.072	137.418
753.366	137.84
753.66	137.831
753.953	137.216
754.247	136.711
754.541	136.402
754.833	135.815
755.127	135.269
755.421	134.736
755.715	134.289
756.008	134.094
756.302	134.041
756.596	133.99
756.89	134.248
757.183	134.609
757.477	134.997
757.771	134.728
758.065	134.376
758.358	134.188
758.652	134.451
758.946	134.824
759.24	134.576
759.533	134.124
759.827	133.702
760.121	133.264
760.414	133.076
760.708	133.101
761.002	133.377
761.295	133.798
761.589	134.228
761.883	134.7
762.176	135.169
762.47	135.635
762.761	136.079
763.055	136.526
763.348	136.893
763.642	136.908
763.936	136.808
764.229	136.283
764.523	135.762
764.816	135.261
765.11	134.791
765.403	134.366
765.697	133.945
765.99	133.677
766.284	133.388
766.575	133.389
766.869	133.519
767.162	133.741
767.455	134.142
767.749	134.472
768.042	134.807
768.336	135.13
768.629	135.654
768.922	135.991
769.214	135.585
769.507	134.868
769.801	134.194
770.094	133.556
770.387	132.894
770.681	132.319
770.974	131.741
771.267	131.251
771.561	130.859
771.852	130.685
772.145	130.852
772.438	131.347
772.732	132.124
773.025	132.94
773.318	133.702
773.611	133.485
773.903	133.688
774.196	133.989
774.489	134.815
774.782	134.652
775.075	134.392
775.369	134.151
775.66	134.059
775.953	133.705
776.246	133.302
776.539	133.056
776.832	132.811
777.125	132.85
777.417	133.018
777.71	133.332
778.003	133.526
778.296	133.51
778.589	133.595
778.882	133.674
779.173	133.914
779.466	134.448
779.759	135.125
780.052	135.433
780.345	134.513
780.636	133.63
780.929	132.875
781.222	132.309
781.515	131.942
781.808	132.045
782.099	132.211
782.392	132.472
782.685	132.787
782.978	133.115
783.271	133.507
783.562	133.873
783.855	134.385
784.148	134.764
784.44	135.023
784.731	134.451
785.024	133.698
785.317	133.545
785.61	133.761
785.903	134.202
786.194	134.752
786.486	135.136
786.779	135.246
787.072	135.653
787.363	136.089
787.656	136.897
787.948	137.472
788.241	138.072
788.532	137.972
788.825	137.71
789.117	137.251
789.41	136.803
789.701	136.314
789.994	135.909
790.286	135.487
790.579	135.109
790.87	134.754
791.162	134.444
791.455	134.188
791.746	133.965
792.038	133.8
792.331	133.665
792.623	133.61
792.914	133.571
793.207	133.603
793.499	133.599
793.79	133.878
794.082	134.232
794.375	134.051
794.668	133.681
794.958	133.555
795.251	133.498
795.543	133.651
795.834	133.985
796.126	134.208
796.419	134.656
796.709	135.119
797.002	135.64
797.294	136.186
797.585	136.726
797.877	137.251
798.17	137.699
798.46	137.922
798.752	138.081
799.045	138.239
799.335	138.145
799.628	137.464
799.92	136.881
800.21	136.348
800.503	135.879
800.795	135.606
801.085	136.078
801.378	136.78
801.67	137.894
801.96	139.043
802.253	140.101
802.545	141.159
802.835	141.476
803.128	141.522
803.42	141.371
803.71	140.846
804.002	140.367
804.293	139.873
804.585	139.468
804.877	139.129
805.167	139.036
805.46	138.996
805.752	138.963
806.042	138.969
806.334	139.073
806.624	139.178
806.916	139.374
807.209	139.578
807.499	139.619
807.791	139.567
808.081	139.53
808.373	139.393
808.665	139.546
808.955	139.716
809.247	139.926
809.538	140.151
809.83	140.509
810.122	140.744
810.412	140.991
810.704	141.223
810.994	141.435
811.286	141.656
811.578	141.825
811.868	141.753
812.16	140.62
812.45	139.172
812.742	139.611
813.032	140.574
813.324	142.138
813.616	142.313
813.906	142.411
814.197	142.469
814.487	142.538
814.779	142.559
815.069	142.611
815.361	142.616
815.651	142.663
815.943	142.679
816.233	142.7
816.525	142.706
816.816	142.669
817.106	142.63
817.398	142.539
817.688	142.363
817.98	142.193
818.269	141.967
818.561	141.758
818.851	141.446
819.143	142.761
819.433	142.499
819.724	142.167
820.014	141.856
820.306	141.676
820.595	141.733
820.887	141.913
821.177	142.441
821.469	143.312
821.758	144.045
822.05	143.95
822.34	143.858
822.631	143.857
822.921	143.845
823.213	143.989
823.502	144.66
823.794	145.017
824.083	144.612
824.375	143.994
824.665	143.416
824.956	142.867
825.246	142.383
825.537	141.985
825.827	141.692
826.118	141.422
826.408	141.711
826.699	142.072
826.989	142.406
827.279	142.72
827.57	142.73
827.859	142.327
828.151	142.051
828.44	141.726
828.732	141.435
829.021	141.111
829.313	140.859
829.602	140.581
829.894	140.348
830.183	140.116
830.472	139.985
830.764	139.955
831.053	139.911
831.345	140.262
831.634	140.635
831.925	141.079
832.215	141.1
832.504	140.934
832.795	141.104
833.085	141.626
833.376	141.883
833.665	142.006
833.955	142.112
834.246	141.976
834.535	141.426
834.826	140.808
835.116	140.17
835.405	139.247
835.696	138.343
835.985	137.449
836.277	136.66
836.566	135.967
836.855	135.781
837.146	136.082
837.435	136.751
837.727	137.503
838.016	138.254
838.305	138.965
838.596	139.658
838.885	139.462
839.174	139.284
839.465	139.131
839.754	139.055
840.046	139.051
840.335	139.274
840.624	138.256
840.915	137.172
841.204	136.072
841.493	134.957
841.784	133.846
842.073	132.866
842.362	132.356
842.653	132.371
842.942	132.53
843.231	132.821
843.522	133.504
843.811	134.2
844.1	134.992
844.391	135.765
844.68	134.814
844.969	133.993
845.26	133.711
845.549	133.953
845.838	134.627
846.128	134.059
846.417	132.858
846.706	131.69
846.997	130.993
847.286	130.637
847.575	130.385
847.866	130.539
848.154	131.045
848.443	131.542
848.734	132.401
849.023	133.179
849.312	132.464
849.601	131.781
849.891	131.207
850.18	130.641
850.469	130.103
850.76	129.583
851.048	129.058
851.337	128.623
851.626	127.993
851.917	127.423
852.205	126.877
852.494	126.05
852.783	125.185
853.073	124.287
853.362	123.386
853.651	122.548
853.941	121.745
854.23	121.026
854.519	120.428
854.807	119.919
855.098	119.792
855.386	119.789
855.675	119.938
855.964	120.087
856.254	120.243
856.543	120.402
856.831	120.586
857.12	120.491
857.408	120.396
857.699	120.294
857.987	120.178
858.276	120.034
858.565	119.728
858.855	119.152
859.143	118.525
859.432	117.829
859.72	117.156
860.009	116.562
860.299	116.002
860.588	115.385
860.876	114.973
861.165	114.798
861.455	114.298
861.743	113.143
862.032	112.056
862.32	110.982
862.609	109.966
862.899	109.017
863.187	108.544
863.476	107.879
863.764	107.367
864.052	106.886
864.341	106.512
864.631	106.158
864.919	105.907
865.208	105.691
865.496	105.542
865.784	105.46
866.072	105.471
866.363	105.318
866.651	105.222
866.939	105.064
867.227	104.615
867.516	104.264
867.804	104.217
868.094	104.292
868.382	104.653
868.67	104.683
868.958	104.529
869.247	104.032
869.535	103.235
869.823	102.341
870.113	101.533
870.401	100.858
870.689	100.633
870.977	100.645
871.266	100.508
871.554	100.171
871.842	99.8312
872.132	99.3011
872.42	98.2438
872.708	97.0334
872.996	94.8623
873.284	93.1083
873.572	91.8398
873.86	91.2188
874.148	91.353
874.436	91.8128
874.726	91.477
875.014	91.3138
875.302	91.4267
875.59	91.6406
875.878	91.9125
876.166	92.2026
876.454	92.5727
876.742	92.8762
877.03	92.9808
877.318	92.6572
877.605	92.4718
877.895	91.9473
878.183	91.3647
878.471	90.7391
878.759	90.0863
879.047	89.4629
879.335	88.8034
879.622	88.1687
879.91	87.7938
880.198	87.3732
880.486	86.7852
880.774	86.6283
881.061	86.5022
881.349	86.39
881.637	86.3571
881.925	86.3347
882.213	86.3262
882.5	85.9616
882.79	85.2969
883.078	84.6482
883.365	84.28
883.653	83.9172
883.941	83.553
884.229	83.2534
884.516	83.1312
884.804	83.0697
885.091	83.0182
885.379	82.6892
885.667	82.1281
885.954	81.5274
886.242	80.7286
886.53	80.5169
886.817	80.317
887.105	80.422
887.392	80.4732
887.68	80.4791
887.968	80.5028
888.255	80.5192
888.543	80.5313
888.83	80.5118
889.118	80.5178
889.405	80.4734
889.693	80.2789
889.98	80.1609
890.268	80.0511
890.555	79.9632
890.843	79.8468
891.13	79.7667
891.418	79.6515
891.705	79.5837
891.993	79.4779
892.28	79.3447
892.567	78.9577
892.855	78.5991
893.142	78.2536
893.428	77.9175
893.715	77.6184
894.002	77.5952
894.29	77.4165
894.577	77.3231
894.865	77.2183
895.152	77.1279
895.439	77.1297
895.727	77.1249
896.014	77.1802
896.301	77.2134
896.588	77.4664
896.876	77.2452
897.163	77.0093
897.45	76.7461
897.737	76.4688
898.025	76.0317
898.31	75.3253
898.597	74.6261
898.884	74.0763
899.172	73.4
899.459	73.2894
899.746	73.8121
900.033	74.2204
900.32	74.6786
900.608	75.1128
900.895	75.252
901.182	75.0078
901.467	74.8932
901.754	74.8599
902.041	74.7906
902.328	74.7359
902.615	74.6982
902.903	74.65
903.19	74.6221
903.477	74.5918
903.764	74.4807
904.049	74.3015
904.336	74.1196
904.623	73.9775
904.91	73.7894
905.197	73.6042
905.484	73.3466
905.771	73.0667
906.058	72.78
906.343	72.5461
906.63	72.3102
906.917	72.1215
907.204	71.9184
907.491	71.7694
907.778	71.5928
908.063	71.3186
908.35	71.0916
908.637	70.7438
908.923	70.4289
909.21	70.1212
909.497	69.8276
909.784	69.5867
910.069	69.3187
910.356	69.194
910.643	69.299
910.929	69.336
911.216	69.4136
911.501	69.4977
911.788	69.649
912.075	69.7937
912.362	70.0879
912.648	70.191
912.935	70.302
913.22	70.3894
913.507	70.1867
913.793	69.6815
914.08	69.4907
914.367	69.316
914.652	69.2658
914.938	69.1672
915.225	69.1426
915.512	69.2545
915.798	69.3314
916.083	69.4202
916.37	69.5889
916.656	69.6162
916.943	69.6731
917.228	69.7087
917.514	69.7494
917.801	69.7871
918.087	69.8044
918.374	69.8006
918.659	69.7718
918.945	69.6794
919.232	69.6103
919.518	69.5685
919.803	69.5148
920.09	69.4834
920.376	69.4928
920.663	69.4788
920.947	69.4523
921.234	69.4823
921.52	69.5189
921.807	69.622
922.091	69.7812
922.378	69.9038
922.664	70.0656
922.949	70.1958
923.235	70.3494
923.521	70.0608
923.808	69.1202
924.092	68.1986
924.379	67.4866
924.665	66.8903
924.951	66.5774
925.236	66.3475
925.522	66.3591
925.809	66.4495
926.093	67.2056
926.379	67.9936
926.666	68.6486
926.95	68.03
927.236	67.3922
927.523	66.9329
927.809	66.4734
928.093	66.1056
928.38	66.2392
928.666	66.1702
928.95	66.2938
929.236	66.6104
929.523	66.969
929.807	67.3535
930.093	67.0893
930.379	66.993
930.664	66.7248
930.95	67.0166
931.236	67.389
931.52	67.8456
931.806	68.2862
932.092	68.7966
932.377	69.3215
932.663	69.4904
932.949	69.321
933.233	69.1392
933.519	68.6513
933.805	68.1539
934.089	67.5049
934.375	66.7232
934.661	65.9584
934.946	65.2209
935.232	64.5758
935.516	64.475
935.802	64.7622
936.088	64.9602
936.372	65.2675
936.658	65.7024
936.944	66.1618
937.228	66.6345
937.514	66.9464
937.798	66.9533
938.084	67.266
938.37	67.1986
938.654	67.1174
938.94	67.035
939.224	66.9235
939.51	66.8422
939.796	66.7083
940.08	66.5158
940.365	66.2597
940.649	66.0442
940.935	65.6871
941.221	65.1716
941.505	64.7006
941.791	64.2275
942.075	63.737
942.361	63.2365
942.646	62.8524
942.93	62.567
943.216	62.89
943.5	62.9818
943.786	63.5313
944.069	64.1636
944.355	64.6114
944.641	64.4645
944.925	64.333
945.211	64.2095
945.494	64.1045
945.78	63.9749
946.064	63.9247
946.349	64.0085
946.633	64.1177
946.919	64.2987
947.203	64.4622
947.488	64.6961
947.774	64.9625
948.058	64.7385
948.343	64.2542
948.627	63.8756
948.913	63.7268
949.196	63.7431
949.482	63.8851
949.765	64.2013
950.051	64.4614
950.335	64.7852
950.62	65.1154
950.904	65.2022
951.189	65.2417
951.473	65.5632
951.758	65.7419
952.042	65.8517
952.328	65.9714
952.611	66.0612
952.897	66.1221
953.18	66.0957
953.466	66.0905
953.749	65.8526
954.034	65.469
954.318	65.0202
954.603	64.5696
954.887	64.0903
955.172	63.5725
955.456	63.0433
955.741	62.5681
956.025	62.1486
956.31	61.9132
956.593	62.1421
956.879	62.2068
957.162	62.2743
957.448	62.4024
957.731	62.5465
958.014	62.7037
958.3	62.8601
958.583	63.0407
958.868	63.2442
959.152	63.373
959.437	63.599
959.72	63.6429
960.005	63.5059
960.289	63.4186
960.572	63.3623
960.857	63.2505
961.141	63.122
961.426	63.0169
961.709	62.8872
961.994	62.7946
962.278	62.8006
962.561	62.7501
962.846	62.7787
963.129	62.5232
963.414	61.941
963.698	61.4729
963.981	61.1403
964.266	61.2715
964.549	61.4385
964.834	61.6827
965.117	61.9848
965.402	62.2792
965.685	62.5818
965.969	62.7909
966.254	63.0766
966.537	63.1661
966.82	62.8805
967.105	62.6796
967.388	62.4117
967.673	62.058
967.956	61.6012
968.239	61.3185
968.524	61.3364
968.807	61.3732
969.09	61.4407
969.375	61.726
969.658	61.8029
969.943	61.9201
970.226	62.0774
970.509	62.1294
970.794	62.1547
971.077	62.2341
971.36	62.0886
971.645	61.9707
971.928	61.8258
972.211	61.7078
972.495	61.5586
972.778	61.1164
973.061	60.6639
973.346	60.2529
973.629	59.859
973.912	59.6152
974.197	59.6197
974.48	59.9209
974.762	60.3024
975.047	60.7412
975.33	61.1962
975.613	61.4557
975.898	61.6174
976.18	61.862
976.463	62.2738
976.748	62.6212
977.031	62.9903
977.313	63.389
977.596	63.7481
977.881	63.9716
978.164	63.8399
978.446	63.6577
978.731	63.4035
979.014	63.1662
979.296	62.869
979.581	62.5715
979.864	62.2651
980.146	61.9447
980.429	61.6286
980.714	61.3102
980.996	60.9557
981.279	59.9478
981.562	59.4711
981.846	59.4416
982.129	60.0335
982.411	60.3501
982.696	60.4711
982.979	60.6156
983.261	61.0131
983.544	61.1123
983.828	61.2315
984.111	61.3204
984.393	61.4178
984.676	61.5041
984.96	61.4568
985.243	61.2932
985.525	61.1707
985.808	61.0194
986.09	60.9308
986.375	60.9184
986.657	60.8832
986.94	60.8254
987.222	60.7994
987.506	60.7578
987.789	60.7307
988.071	60.6958
988.354	60.6696
988.636	60.6377
988.92	60.6175
989.203	60.5858
989.485	60.5451
989.768	60.5104
990.052	60.4436
990.334	60.4052
990.617	60.324
990.899	60.2831
991.181	60.1905
991.464	60.1331
991.748	60.0793
992.03	59.9712
992.312	59.8761
992.595	59.7454
992.877	59.6606
993.161	59.5585
993.443	59.4861
993.726	59.417
994.008	59.3574
994.29	59.3156
994.572	59.2678
994.857	59.1534
995.139	59.0066
995.421	58.9111
995.703	58.7621
995.985	58.6971
996.267	58.7
996.552	58.7134
996.834	58.8071
997.116	59.307
997.398	59.4585
997.68	59.4428
997.962	59.4308
998.244	59.429
998.528	59.3993
998.81	59.3745
999.092	59.275
999.375	58.7309
999.657	57.2961
999.939	55.5756
