#Acq. time (s)=	10
#Accumulations=	2
#Range (cm-¹)=	100...4000
#Windows=	1
#Auto scanning=	Off
#Autofocus=	Off
#Macrospot=	Off
#AutoExposure=	Off
#Spike filter=	Multiple accum.
#Delay time (s)=	2
#Binning=	1
#Readout mode=	Signal
#DeNoise=	Standard
#ICS correction=	On
#Dark correction=	Off
#Inst. Process=	Off
#Detector Gain=	Best Dynamic
#Detector ADC=	50 kHz HS
#Detector temperature (°C)=	-60.09
#Instrument=	LabRAM HR Evol
#Detector=	SIN-EM FIVIS
#Objective=	x50_VIS_LWD
#Grating=	150 (500nm)
#ND Filter=	25%
#Laser=	633nm_Edge
#Hole=	100.021
#Temperature=	0
#Range=	Visible
#StageXY=	75x50mm Scan+
#StageZ=	Z motor
#X (µm)=	0
#Y (µm)=	0
#Z (µm)=	-51.1
#Full time(s)=	24
#Project=	20_10_27
#Sample=	BU19TS
#Site=	
#Title=	BU19TS-Coltan-dark_spot_150 (500nm)_633nm_Edge_25%_x50_VIS_LWD_H100um_10sX2
#Remark=	
#Date=	27.10.2020 15:12
#Acquired=	27.10.2020 15:12:03
100.764	247.204
104.022	249.354
107.281	253.183
110.536	259.888
113.791	274.541
117.044	289.27
120.297	324.651
123.546	374.636
126.797	416.488
130.044	465.549
133.291	491.501
136.536	467.633
139.78	407.256
143.022	343.951
146.264	299.73
149.503	275.515
152.741	244.863
155.979	246.804
159.214	264.359
162.449	274.366
165.682	279.268
168.914	285.03
172.144	291.164
175.374	288.436
178.601	282.418
181.827	273.093
185.053	264.731
188.276	255.387
191.499	247.662
194.719	258.807
197.939	267.812
201.158	296.872
204.374	333.919
207.591	326.597
210.805	302.027
214.017	277.11
217.23	258.859
220.44	253.222
223.648	250.922
226.857	252.081
230.063	262.031
233.267	276.815
236.472	292.064
239.674	310.239
242.874	324.331
246.075	332.955
249.273	335.995
252.47	337.878
255.667	333.917
258.861	331.278
262.053	330.648
265.246	331.476
268.436	327.048
271.625	320.724
274.813	307.656
278	300.361
281.185	294.044
284.369	289.95
287.552	290.883
290.733	289.691
293.913	288.23
297.091	287.014
300.27	287.078
303.445	283.815
306.62	278.44
309.793	267.73
312.965	267.815
316.137	269.257
319.306	272.963
322.474	270.707
325.64	263.604
328.806	254.289
331.971	246.274
335.134	236.997
338.295	228.609
341.456	223.231
344.614	220.144
347.773	219.721
350.93	221.523
354.085	223.1
357.238	226.065
360.391	228.934
363.542	232.948
366.692	238.345
369.842	244.742
372.989	251.57
376.135	254.992
379.28	267.491
382.423	284.662
385.565	305.337
388.706	326.744
391.846	344.589
394.984	364.724
398.123	357.813
401.258	348.019
404.393	321.325
407.526	296.92
410.658	274.534
413.789	263.853
416.918	251.215
420.046	239.687
423.173	236.356
426.299	232.237
429.423	231.153
432.546	230.075
435.668	229.756
438.788	230.078
441.907	230.922
445.025	232.047
448.142	233.474
451.257	235.157
454.372	237.222
457.484	239.585
460.596	242.351
463.706	245.411
466.816	248.816
469.923	252.109
473.03	254.965
476.135	258.104
479.239	261.474
482.342	265.012
485.444	268.869
488.544	272.771
491.643	276.974
494.741	281.219
497.837	285.787
500.933	290.442
504.027	295.175
507.12	300.411
510.21	306.964
513.3	316.389
516.389	327.565
519.477	340.927
522.563	358.925
525.649	387.438
528.733	417.401
531.815	454.436
534.897	462.954
537.976	437.669
541.055	405.892
544.133	366.24
547.209	343.468
550.285	324.489
553.359	308.635
556.43	295.262
559.502	285.431
562.572	278.257
565.641	274.446
568.709	272.004
571.776	270.613
574.84	269.231
577.904	268.617
580.967	268.172
584.029	268.934
587.09	270.508
590.147	272.632
593.205	275.39
596.262	278.918
599.318	282.785
602.371	287.065
605.424	291.376
608.476	295.654
611.527	300.494
614.575	305.464
617.623	311.06
620.67	318.443
623.716	327.141
626.759	332.292
629.802	337.233
632.844	339.358
635.884	339.989
638.924	338.861
641.962	332.902
644.998	325.404
648.034	318.649
651.069	312.357
654.101	306.629
657.133	301.276
660.165	296.309
663.193	290.316
666.222	284.452
669.25	279.453
672.274	275.226
675.3	272.133
678.324	270.019
681.345	269.491
684.366	268.931
687.385	267.364
690.404	268.275
693.422	269.504
696.438	271.134
699.453	272.978
702.466	274.93
705.479	276.981
708.491	279.212
711.5	281.609
714.51	284.142
717.516	286.835
720.523	289.554
723.528	292.581
726.533	295.715
729.536	299.091
732.537	302.474
735.538	305.992
738.537	309.513
741.535	313.189
744.531	317.046
747.528	321.096
750.521	325.047
753.515	329.64
756.507	334.825
759.498	340.333
762.487	345.837
765.476	351.319
768.463	356.662
771.45	359.73
774.434	362.183
777.417	364.27
780.4	366.183
783.381	368.04
786.362	370.699
789.34	373.32
792.319	375.919
795.294	377.06
798.269	379.446
801.244	382.701
804.217	386.377
807.189	397.111
810.159	410.025
813.128	426.169
816.097	443.378
819.064	466.224
822.03	486.914
824.995	508.91
827.958	525.841
830.921	545.683
833.881	562.937
836.841	578.353
839.801	589.115
842.758	602.86
845.714	619.845
848.67	652.78
851.624	716.446
854.576	808.686
857.529	934.001
860.479	1083.3
863.428	1273.63
866.377	1558.91
869.324	1936.25
872.269	2442.88
875.215	2966.6
878.158	3264.81
881.1	3122.39
884.041	2531.16
886.982	1808.1
889.92	1257.18
892.858	906.351
895.794	737.121
898.73	602.284
901.664	477.308
904.597	404.032
907.529	348.118
910.459	303.201
913.39	265.412
916.318	242.628
919.245	226.582
922.171	215.45
925.095	208.204
928.02	201.699
930.943	194.98
933.864	190.219
936.784	185.985
939.703	182.318
942.62	178.142
945.539	174.304
948.454	170.758
951.368	167.55
954.282	164.635
957.194	162.036
960.105	159.706
963.014	157.667
965.924	155.855
968.832	154.135
971.738	152.976
974.643	151.938
977.547	151.028
980.45	150.21
983.352	149.472
986.253	148.646
989.152	147.929
992.051	147.218
994.948	146.541
997.844	145.863
1000.74	145.204
1003.63	144.545
1006.53	143.915
1009.42	143.308
1012.31	142.741
1015.2	142.216
1018.09	141.725
1020.97	141.268
1023.86	140.826
1026.74	140.367
1029.63	140.066
1032.51	139.773
1035.39	138.969
1038.27	138.881
1041.15	139.072
1044.03	139.255
1046.91	139.139
1049.78	139.049
1052.66	138.957
1055.53	138.885
1058.4	138.826
1061.27	138.466
1064.14	138.338
1067.01	138.144
1069.88	137.926
1072.75	137.709
1075.61	137.885
1078.48	138.026
1081.34	137.181
1084.2	136.388
1087.06	136.081
1089.92	135.791
1092.78	135.766
1095.64	135.682
1098.5	135.633
1101.35	135.577
1104.21	135.525
1107.06	135.46
1109.91	135.404
1112.77	135.3
1115.62	135.215
1118.46	134.89
1121.31	134.707
1124.16	134.228
1127	133.257
1129.85	132.368
1132.69	131.374
1135.53	130.995
1138.37	130.715
1141.22	130.475
1144.05	130.298
1146.89	130.138
1149.73	130.027
1152.56	129.958
1155.4	129.872
1158.23	129.815
1161.06	129.757
1163.9	129.678
1166.73	129.621
1169.56	129.333
1172.38	129.125
1175.21	128.926
1178.04	128.468
1180.86	128.027
1183.68	127.562
1186.51	127.117
1189.33	126.639
1192.15	126.341
1194.97	126.092
1197.78	126.555
1200.6	126.575
1203.42	126.619
1206.23	126.552
1209.04	126.435
1211.86	125.717
1214.67	124.948
1217.48	124.214
1220.29	123.692
1223.1	122.672
1225.9	121.611
1228.71	120.665
1231.51	119.761
1234.32	119.542
1237.12	119.06
1239.92	119.436
1242.72	120.057
1245.52	119.788
1248.32	119.59
1251.12	119.401
1253.92	119.2
1256.71	119.081
1259.5	118.863
1262.3	118.681
1265.09	118.468
1267.88	118.261
1270.67	117.866
1273.46	117.307
1276.25	116.548
1279.03	115.947
1281.82	115.341
1284.6	114.808
1287.39	114.398
1290.17	114.09
1292.95	114.228
1295.73	114.33
1298.51	114.798
1301.29	115.269
1304.06	115.366
1306.84	115.191
1309.61	115.07
1312.39	114.959
1315.16	114.882
1317.93	114.932
1320.7	114.881
1323.47	114.807
1326.24	114.759
1329.01	114.704
1331.77	114.651
1334.54	114.611
1337.3	114.554
1340.06	114.189
1342.83	113.919
1345.59	113.794
1348.35	113.79
1351.1	113.849
1353.86	113.957
1356.62	113.93
1359.37	113.879
1362.13	113.861
1364.88	113.834
1367.63	113.844
1370.39	113.807
1373.14	113.84
1375.89	113.846
1378.63	111.974
1381.38	111.013
1384.13	110.112
1386.87	109.949
1389.62	110.381
1392.36	110.886
1395.1	111.418
1397.84	111.937
1400.58	112.45
1403.32	112.926
1406.06	113.283
1408.79	113.686
1411.53	113.99
1414.26	114.048
1417	114.049
1419.73	113.971
1422.46	113.905
1425.19	113.886
1427.92	113.835
1430.65	113.789
1433.38	113.745
1436.1	113.723
1438.83	113.626
1441.55	113.914
1444.27	114.414
1447	114.939
1449.72	115.62
1452.44	115.539
1455.16	115.474
1457.87	115.353
1460.59	115.172
1463.31	114.996
1466.02	114.832
1468.73	114.741
1471.45	114.689
1474.16	114.626
1476.87	114.566
1479.58	114.557
1482.29	114.519
1484.99	114.528
1487.7	114.511
1490.41	114.543
1493.11	114.728
1495.81	114.789
1498.52	114.871
1501.22	114.946
1503.92	115.017
1506.62	115.09
1509.32	115.168
1512.01	115.233
1514.71	115.311
1517.4	115.359
1520.1	115.418
1522.79	115.382
1525.48	115.212
1528.17	115.074
1530.86	114.803
1533.55	114.614
1536.24	114.371
1538.93	114.159
1541.61	113.923
1544.3	113.782
1546.98	113.409
1549.67	113.065
1552.35	112.66
1555.03	112.266
1557.71	111.869
1560.39	111.494
1563.07	111.111
1565.74	110.717
1568.42	110.368
1571.09	110.008
1573.77	109.678
1576.44	109.236
1579.11	109.13
1581.78	109.019
1584.45	108.972
1587.12	109.077
1589.79	109.321
1592.45	109.52
1595.12	109.765
1597.78	109.617
1600.45	109.414
1603.11	109.246
1605.77	109.11
1608.43	108.974
1611.09	108.922
1613.75	108.835
1616.41	108.723
1619.07	108.759
1621.72	108.881
1624.38	109.008
1627.03	108.915
1629.68	108.758
1632.33	108.61
1634.98	108.46
1637.63	108.241
1640.28	108.13
1642.93	108.06
1645.58	107.979
1648.22	108.075
1650.87	108.073
1653.51	108.137
1656.15	108.13
1658.8	107.733
1661.44	106.936
1664.08	106.158
1666.71	105.371
1669.35	104.658
1671.99	104.168
1674.62	104.522
1677.26	104.814
1679.89	105.214
1682.53	105.742
1685.16	106.325
1687.79	107.059
1690.42	107.387
1693.05	107.394
1695.67	107.549
1698.3	107.762
1700.93	107.995
1703.55	108.327
1706.18	108.66
1708.8	109.024
1711.42	109.365
1714.04	109.287
1716.66	110.115
1719.28	110.926
1721.9	111.824
1724.51	111.631
1727.13	111.355
1729.75	111.051
1732.36	110.761
1734.97	110.318
1737.58	109.777
1740.2	109.161
1742.81	108.448
1745.42	107.714
1748.02	106.849
1750.63	105.874
1753.24	104.833
1755.84	103.479
1758.45	102.054
1761.05	100.659
1763.65	99.2172
1766.25	97.8031
1768.85	96.4452
1771.45	95.1727
1774.05	94.6262
1776.65	93.8571
1779.24	93.5253
1781.84	93.3006
1784.44	93.1683
1787.03	93.0417
1789.62	92.2087
1792.21	91.4952
1794.8	90.9081
1797.39	90.3452
1799.98	90.0192
1802.57	89.7162
1805.16	89.4991
1807.74	89.3105
1810.33	89.0971
1812.91	88.4375
1815.49	87.8592
1818.08	87.2764
1820.66	87.1948
1823.24	87.2086
1825.82	87.2812
1828.39	87.0444
1830.97	86.5218
1833.55	85.9677
1836.12	85.4354
1838.7	84.9085
1841.27	84.396
1843.84	83.9139
1846.42	83.4704
1848.99	83.0628
1851.56	83.0963
1854.12	83.0125
1856.69	83.037
1859.26	83.0762
1861.82	83.065
1864.39	82.6889
1866.95	82.2289
1869.52	81.7817
1872.08	81.3828
1874.64	81.3308
1877.2	81.684
1879.76	81.9638
1882.32	81.9664
1884.87	81.8344
1887.43	81.6287
1889.98	81.4115
1892.54	81.2149
1895.09	81.1487
1897.64	81.1474
1900.2	81.3846
1902.75	81.6769
1905.3	81.9844
1907.85	82.3511
1910.39	82.7222
1912.94	82.9777
1915.49	81.2084
1918.03	80.8543
1920.57	81.4657
1923.12	82.3033
1925.66	83.0907
1928.2	83.9821
1930.74	84.9739
1933.28	84.9136
1935.82	84.6708
1938.36	84.4388
1940.89	84.1312
1943.43	83.8563
1945.96	83.5669
1948.5	83.2743
1951.03	82.9751
1953.56	82.5951
1956.09	82.3418
1958.62	82.1111
1961.15	81.8893
1963.68	81.7481
1966.21	81.5567
1968.73	81.479
1971.26	81.3526
1973.78	81.2801
1976.31	81.1994
1978.83	81.1402
1981.35	81.0779
1983.87	81.025
1986.39	80.989
1988.91	80.9846
1991.43	80.9747
1993.94	80.9911
1996.46	80.7912
1998.98	80.4953
2001.49	80.2584
2004	79.9976
2006.52	79.7645
2009.03	79.5883
2011.54	79.405
2014.05	79.2411
2016.56	79.0646
2019.06	79.3199
2021.57	79.4059
2024.08	79.5616
2026.58	79.7069
2029.08	79.8657
2031.59	80.0401
2034.09	80.2051
2036.59	80.3925
2039.09	80.5688
2041.59	80.7091
2044.09	80.8563
2046.59	80.9593
2049.08	80.8472
2051.58	81.0952
2054.07	80.7522
2056.57	80.3158
2059.06	79.7952
2061.55	79.2813
2064.05	78.7931
2066.54	78.2389
2069.02	77.7052
2071.51	77.1817
2074	76.6847
2076.49	76.1887
2078.97	75.748
2081.46	75.3106
2083.94	75.2272
2086.43	75.1707
2088.91	75.1927
2091.39	75.1817
2093.87	75.2147
2096.35	75.2951
2098.83	75.3866
2101.3	75.5473
2103.78	75.7023
2106.26	75.9195
2108.73	75.9712
2111.21	76.3808
2113.68	76.8374
2116.15	77.324
2118.62	77.6474
2121.09	77.5702
2123.56	77.4737
2126.03	77.5087
2128.5	77.6421
2130.97	77.5268
2133.43	77.4112
2135.9	77.2553
2138.36	77.1062
2140.83	76.9362
2143.29	76.7682
2145.75	76.4778
2148.21	76.1054
2150.67	75.9969
2153.13	75.8831
2155.59	75.8228
2158.04	75.7705
2160.5	75.7375
2162.95	75.9786
2165.41	76.0761
2167.86	76.1754
2170.31	76.4993
2172.77	76.3928
2175.22	76.2791
2177.67	76.1411
2180.12	75.7151
2182.56	75.3891
2185.01	75.0275
2187.46	74.7035
2189.9	74.4198
2192.35	74.1167
2194.79	73.9262
2197.23	73.7244
2199.68	74.0452
2202.12	74.2206
2204.56	74.396
2207	74.6441
2209.43	74.5885
2211.87	74.3239
2214.31	74.2385
2216.74	74.0924
2219.18	73.873
2221.61	73.8391
2224.05	73.8512
2226.48	73.7413
2228.91	73.3227
2231.34	72.9914
2233.77	73.0456
2236.2	73.2397
2238.63	73.4671
2241.05	73.7791
2243.48	74.1444
2245.9	74.5364
2248.33	74.6189
2250.75	74.6311
2253.17	74.5187
2255.6	74.366
2258.02	74.2783
2260.44	74.1396
2262.86	74.0099
2265.27	73.8935
2267.69	73.7642
2270.11	73.6522
2272.52	73.5176
2274.94	73.4031
2277.35	73.267
2279.76	73.1448
2282.18	73.0094
2284.59	72.8766
2287	72.735
2289.41	72.5954
2291.82	72.435
2294.23	72.3358
2296.63	72.2353
2299.04	72.2388
2301.44	72.2688
2303.85	72.3158
2306.25	72.0349
2308.65	71.8101
2311.05	71.4752
2313.46	71.538
2315.86	71.7146
2318.25	71.9708
2320.65	72.2785
2323.05	72.5894
2325.45	72.9924
2327.84	73.2224
2330.24	73.3401
2332.63	73.3221
2335.03	73.022
2337.42	72.7536
2339.81	72.4618
2342.2	72.1599
2344.59	71.8632
2346.98	71.5269
2349.37	71.179
2351.75	70.8286
2354.14	70.5108
2356.52	70.1884
2358.91	69.9033
2361.29	69.6664
2363.67	69.8046
2366.06	69.8171
2368.44	69.8992
2370.82	70.0064
2373.2	70.2324
2375.58	70.4808
2377.95	70.7305
2380.33	70.9725
2382.71	70.9019
2385.08	70.8331
2387.46	70.5797
2389.83	70.1889
2392.2	69.663
2394.57	69.1724
2396.95	68.851
2399.32	68.8124
2401.68	68.9554
2404.05	69.5723
2406.42	70.32
2408.79	70.8253
2411.15	70.817
2413.52	70.8834
2415.88	70.9431
2418.25	71.1444
2420.61	71.3659
2422.97	71.6058
2425.33	71.8454
2427.69	72.0719
2430.05	72.0144
2432.41	71.2066
2434.77	70.1427
2437.12	69.178
2439.48	68.2838
2441.83	67.5681
2444.19	67.1802
2446.54	66.8474
2448.89	67.2774
2451.24	67.785
2453.6	67.4967
2455.95	66.9247
2458.29	66.8566
2460.64	66.8909
2462.99	67.084
2465.34	67.255
2467.68	67.6446
2470.03	68.0349
2472.37	68.4619
2474.72	68.8738
2477.06	69.2733
2479.4	69.0358
2481.74	68.6732
2484.08	68.595
2486.42	68.6943
2488.76	68.779
2491.1	68.874
2493.43	68.9398
2495.77	69.0704
2498.1	69.1472
2500.44	69.2259
2502.77	69.2216
2505.1	69.2385
2507.43	69.1399
2509.76	69.0563
2512.1	68.69
2514.42	68.3671
2516.75	68.0584
2519.08	67.6163
2521.41	67.1929
2523.73	66.7461
2526.06	66.2033
2528.38	65.6628
2530.71	65.2033
2533.03	64.7815
2535.35	64.2862
2537.67	63.8546
2539.99	63.9651
2542.31	63.9026
2544.63	63.7945
2546.95	63.5842
2549.26	63.6587
2551.58	64.0019
2553.89	63.832
2556.21	63.621
2558.52	63.4454
2560.84	63.4943
2563.15	63.6792
2565.46	63.9545
2567.77	64.2911
2570.08	64.7321
2572.39	65.1521
2574.7	65.6972
2577	66.4045
2579.31	67.241
2581.61	67.8484
2583.92	68.4794
2586.22	68.9746
2588.53	68.8699
2590.83	68.4128
2593.13	67.7083
2595.43	66.8589
2597.73	65.7677
2600.03	64.557
2602.33	63.4843
2604.62	62.5455
2606.92	62.135
2609.22	61.6453
2611.51	61.3795
2613.81	61.2776
2616.1	61.5131
2618.39	61.6705
2620.68	62.0283
2622.97	62.5314
2625.26	63.117
2627.55	63.5009
2629.84	63.7483
2632.13	63.9382
2634.42	64.039
2636.7	64.216
2638.99	64.4897
2641.27	64.6047
2643.56	64.6567
2645.84	64.5931
2648.12	64.4202
2650.4	64.1491
2652.68	63.8463
2654.96	63.4125
2657.24	63.1738
2659.52	62.9466
2661.8	62.7158
2664.07	60.1968
2666.35	60.4936
2668.63	60.6597
2670.9	60.8719
2673.17	61.1282
2675.45	61.292
2677.72	62.3867
2679.99	63.0037
2682.26	63.8747
2684.53	63.5765
2686.8	63.1963
2689.06	61.4728
2691.33	60.9713
2693.6	60.8879
2695.86	61.1463
2698.13	61.0033
2700.39	60.73
2702.66	60.5219
2704.92	60.7398
2707.18	60.7596
2709.44	60.7582
2711.7	60.7606
2713.96	60.7526
2716.22	60.7805
2718.47	60.8315
2720.73	60.8197
2722.99	60.9366
2725.24	61.3116
2727.5	61.7138
2729.75	62.0965
2732	62.3321
2734.26	62.4948
2736.51	62.7671
2738.76	63.0073
2741.01	63.3093
2743.25	63.5628
2745.5	63.7478
2747.75	63.8346
2750	63.8431
2752.24	63.4775
2754.49	62.9826
2756.73	62.2937
2758.98	61.6749
2761.22	61.006
2763.46	60.4589
2765.7	60.0837
2767.94	59.7073
2770.18	59.8056
2772.42	60.0409
2774.66	60.3508
2776.9	60.5692
2779.13	60.0577
2781.37	59.5237
2783.6	59.0302
2785.84	58.5902
2788.07	58.4386
2790.3	58.4269
2792.53	58.323
2794.77	58.2358
2797	58.4983
2799.23	58.8262
2801.45	59.1772
2803.68	59.5526
2805.91	59.8843
2808.14	60.2428
2810.36	60.5856
2812.59	60.8544
2814.81	61.2303
2817.03	61.4571
2819.26	61.2762
2821.48	61.0353
2823.7	60.7858
2825.92	60.4995
2828.14	60.2012
2830.36	59.9198
2832.57	59.6383
2834.79	59.3557
2837.01	59.092
2839.22	58.832
2841.44	58.6015
2843.65	58.3079
2845.87	58.3599
2848.08	58.4017
2850.29	58.4606
2852.5	58.7458
2854.71	58.8169
2856.92	58.9512
2859.13	59.0503
2861.34	58.7639
2863.55	58.2878
2865.75	57.7451
2867.96	57.3445
2870.16	56.9251
2872.37	56.7054
2874.57	56.7947
2876.77	57.1482
2878.98	57.5802
2881.18	58.0899
2883.38	58.6454
2885.58	59.1756
2887.78	59.5247
2889.97	59.7109
2892.17	59.7828
2894.37	59.6073
2896.56	59.3778
2898.76	58.8649
2900.95	58.262
2903.15	57.6485
2905.34	57.0291
2907.53	56.4387
2909.72	55.9261
2911.91	55.7872
2914.1	55.6284
2916.29	56.0319
2918.48	56.5259
2920.67	57.0339
2922.86	56.8543
2925.04	57.3096
2927.23	57.6763
2929.41	58.0614
2931.6	58.4496
2933.78	58.851
2935.96	59.2779
2938.14	59.7214
2940.32	59.8606
2942.5	59.6473
2944.68	59.3645
2946.86	58.991
2949.04	58.612
2951.22	58.1835
2953.39	57.7565
2955.57	57.3469
2957.74	56.9105
2959.92	56.6122
2962.09	56.3395
2964.26	56.2413
2966.44	56.1567
2968.61	56.1051
2970.78	56.1214
2972.95	56.2496
2975.12	56.7459
2977.28	57.0194
2979.45	57.3963
2981.62	57.3223
2983.79	57.0477
2985.95	56.5466
2988.11	56.139
2990.28	55.8378
2992.44	55.5827
2994.6	55.4631
2996.77	55.386
2998.93	55.4405
3001.09	55.5231
3003.25	55.7954
3005.4	56.0732
3007.56	56.3856
3009.72	56.515
3011.88	56.7496
3014.03	57.0198
3016.19	57.3754
3018.34	57.7194
3020.49	58.1455
3022.65	58.4241
3024.8	58.5581
3026.95	58.5327
3029.1	58.6377
3031.25	58.7829
3033.4	58.5138
3035.55	58.2063
3037.7	58.0097
3039.84	57.9135
3041.99	57.8271
3044.13	57.8579
3046.28	58.0045
3048.42	58.4651
3050.57	58.5259
3052.71	58.3358
3054.85	58.505
3056.99	58.8485
3059.13	59.0265
3061.27	58.392
3063.41	57.6647
3065.55	56.8973
3067.69	56.1755
3069.82	55.5323
3071.96	55.037
3074.09	54.8298
3076.23	54.6588
3078.36	54.5714
3080.5	54.5158
3082.63	54.5237
3084.76	54.5473
3086.89	54.6223
3089.02	54.7148
3091.15	54.8343
3093.28	54.9597
3095.41	55.1003
3097.53	55.2136
3099.66	55.3752
3101.79	55.4639
3103.91	55.6224
3106.04	55.8302
3108.16	55.839
3110.28	55.764
3112.41	55.6973
3114.53	55.6209
3116.65	55.5862
3118.77	55.5731
3120.89	55.5008
3123.01	55.5313
3125.12	55.7546
3127.24	55.982
3129.36	56.5752
3131.47	57.2834
3133.59	57.9433
3135.7	58.6078
3137.82	59.086
3139.93	59.2594
3142.04	59.5579
3144.15	59.9147
3146.27	60.3888
3148.38	61.1347
3150.49	61.287
3152.59	61.0804
3154.7	60.7421
3156.81	60.3075
3158.92	59.6086
3161.02	58.7753
3163.13	58.0018
3165.23	57.2503
3167.33	56.6084
3169.44	56.8209
3171.54	56.9245
3173.64	57.1715
3175.74	57.3636
3177.84	56.5481
3179.94	55.907
3182.04	55.299
3184.14	55.1551
3186.24	55.1089
3188.33	55.2173
3190.43	55.3216
3192.52	55.5719
3194.62	55.0197
3196.71	54.461
3198.81	54.0519
3200.9	53.8375
3202.99	53.8567
3205.08	54.0685
3207.17	54.5337
3209.26	55.3555
3211.35	55.5344
3213.44	55.4822
3215.53	55.5879
3217.61	55.8736
3219.7	56.2759
3221.79	56.867
3223.87	57.5047
3225.95	57.2593
3228.04	56.9705
3230.12	56.6451
3232.2	56.176
3234.28	56.0341
3236.36	55.9156
3238.44	55.8768
3240.52	55.9029
3242.6	56.069
3244.68	56.1148
3246.76	56.2726
3248.83	56.4175
3250.91	56.5112
3252.98	56.602
3255.06	56.5558
3257.13	56.4137
3259.2	56.0815
3261.28	55.8283
3263.35	55.6017
3265.42	55.4373
3267.49	55.2944
3269.56	55.2267
3271.63	55.2252
3273.7	55.3053
3275.76	55.4934
3277.83	56.2266
3279.9	56.5429
3281.96	56.5576
3284.03	56.5411
3286.09	56.5616
3288.15	56.5486
3290.22	56.4998
3292.28	56.4873
3294.34	56.5081
3296.4	56.5262
3298.46	56.5708
3300.52	56.6485
3302.58	56.672
3304.64	56.7959
3306.69	56.959
3308.75	56.8209
3310.8	55.8225
3312.86	55.0468
3314.91	54.4585
3316.97	54.0711
3319.02	54.2414
3321.07	54.4842
3323.12	54.761
3325.18	55.0452
3327.23	55.1938
3329.28	55.3008
3331.32	55.436
3333.37	55.2989
3335.42	55.0679
3337.47	54.8503
3339.51	54.5784
3341.56	54.3057
3343.6	53.932
3345.65	53.7271
3347.69	53.3309
3349.73	53.3014
3351.78	53.3288
3353.82	53.4828
3355.86	53.6586
3357.9	53.8432
3359.94	54.0702
3361.98	54.2429
3364.02	54.4854
3366.05	54.1435
3368.09	53.2256
3370.12	52.365
3372.16	51.68
3374.19	51.0183
3376.23	50.9216
3378.26	50.5259
3380.29	50.2848
3382.33	50.234
3384.36	50.7315
3386.39	51.4247
3388.42	51.8514
3390.45	52.7033
3392.48	53.7756
3394.5	54.3266
3396.53	54.4903
3398.56	55.1931
3400.58	55.5837
3402.61	55.8276
3404.63	55.1872
3406.66	54.4602
3408.68	53.4414
3410.7	52.5102
3412.73	51.8376
3414.75	51.5924
3416.77	51.6546
3418.79	51.9819
3420.81	52.4408
3422.83	52.9422
3424.84	52.7536
3426.86	53.2572
3428.88	53.999
3430.89	53.7942
3432.91	53.6627
3434.92	53.5528
3436.94	53.4845
3438.95	53.4781
3440.96	53.5119
3442.98	53.6414
3444.99	53.8156
3447	54.1231
3449.01	54.5489
3451.02	55.018
3453.03	54.2958
3455.03	53.6701
3457.04	53.1938
3459.05	53.3368
3461.05	53.3578
3463.06	53.5625
3465.06	53.9169
3467.07	54.5071
3469.07	55.2455
3471.07	56.5223
3473.08	57.4381
3475.08	57.2858
3477.08	56.7812
3479.08	55.993
3481.08	55.2951
3483.08	54.9843
3485.07	54.8807
3487.07	55.2978
3489.07	54.873
3491.07	53.8672
3493.06	53.1656
3495.06	52.5722
3497.05	52.1889
3499.04	52.0807
3501.04	52.2072
3503.03	52.6964
3505.02	53.3605
3507.01	53.5972
3509	53.8148
3510.99	53.9497
3512.98	54.011
3514.97	53.5008
3516.96	53.5587
3518.94	53.6868
3520.93	53.8917
3522.91	54.1049
3524.9	54.3735
3526.88	54.1302
3528.87	53.7851
3530.85	53.5433
3532.83	53.37
3534.82	53.2235
3536.8	53.1921
3538.78	53.3163
3540.76	53.419
3542.74	53.5742
3544.71	53.7556
3546.69	54.1047
3548.67	53.9688
3550.65	53.4381
3552.62	53.2311
3554.6	53.0433
3556.57	52.9409
3558.55	52.8357
3560.52	50.444
3562.49	49.9174
3564.47	50.0836
3566.44	51.2884
3568.41	52.0815
3570.38	53.0608
3572.35	52.8758
3574.32	52.6274
3576.29	52.3569
3578.25	52.021
3580.22	51.8607
3582.19	51.6595
3584.15	51.5955
3586.12	51.5233
3588.08	51.4469
3590.05	51.6922
3592.01	52.2505
3593.97	52.7498
3595.93	53.2771
3597.89	53.4985
3599.85	53.254
3601.81	53.0315
3603.77	52.889
3605.73	52.703
3607.69	52.4805
3609.65	52.2754
3611.61	52.1899
3613.56	52.3014
3615.52	52.0797
3617.47	51.7963
3619.43	51.9036
3621.38	52.0806
3623.33	52.2569
3625.28	52.3828
3627.24	52.5527
3629.19	52.1359
3631.14	51.6901
3633.09	51.218
3635.04	50.7447
3636.99	50.3152
3638.93	49.9716
3640.88	49.54
3642.83	49.2167
3644.77	49.1289
3646.72	49.1922
3648.66	49.2839
3650.61	49.4994
3652.55	49.7079
3654.49	50.0216
3656.44	50.3953
3658.38	50.7744
3660.32	51.1525
3662.26	51.5275
3664.2	51.8778
3666.14	52.2303
3668.08	52.4521
3670.01	52.6558
3671.95	52.8997
3673.89	53.0821
3675.82	53.2722
3677.76	53.4197
3679.69	53.5493
3681.63	53.6764
3683.56	53.533
3685.5	53.3631
3687.43	53.0907
3689.36	52.8116
3691.29	52.7094
3693.22	52.7468
3695.15	52.8521
3697.08	52.9516
3699.01	52.5972
3700.94	52.1785
3702.86	51.8184
3704.79	51.4144
3706.72	51.0432
3708.64	50.6505
3710.57	50.2858
3712.49	49.9264
3714.41	49.5849
3716.34	49.2937
3718.26	49.5665
3720.18	49.58
3722.1	49.5895
3724.02	49.6436
3725.94	49.6942
3727.86	49.8051
3729.78	49.8748
3731.7	50.03
3733.61	50.3553
3735.53	50.8586
3737.45	51.5308
3739.36	52.0137
3741.28	52.515
3743.19	53.0923
3745.11	53.7041
3747.02	53.9334
3748.93	53.9037
3750.84	53.7521
3752.75	53.5878
3754.66	53.2342
3756.57	52.8976
3758.48	52.3768
3760.39	51.8671
3762.3	51.2143
3764.21	50.6934
3766.12	50.4397
3768.02	50.4817
3769.93	51.114
3771.83	52.0239
3773.74	52.9117
3775.64	53.7277
3777.54	54.424
3779.45	54.6325
3781.35	54.6949
3783.25	54.7601
3785.15	54.6833
3787.05	54.6142
3788.95	54.1115
3790.85	53.6635
3792.75	53.16
3794.65	52.6658
3796.54	52.2674
3798.44	51.9917
3800.34	51.4631
3802.23	50.7711
3804.13	50.6106
3806.02	50.4886
3807.91	50.5463
3809.81	50.5374
3811.7	50.2406
3813.59	49.9363
3815.48	49.5705
3817.37	49.2528
3819.26	48.9266
3821.15	48.6327
3823.04	48.3754
3824.93	48.1299
3826.82	47.9459
3828.7	47.6603
3830.59	47.819
3832.47	48.1121
3834.36	48.3864
3836.24	48.7933
3838.13	49.2149
3840.01	49.6926
3841.89	50.1647
3843.78	50.456
3845.66	50.2808
3847.54	50.4818
3849.42	50.9681
3851.3	50.8571
3853.18	50.5679
3855.06	50.5391
3856.93	50.5588
3858.81	50.5626
3860.69	50.5491
3862.56	50.5978
3864.44	50.6936
3866.31	50.8604
3868.19	51.0676
3870.06	51.2336
3871.93	51.3908
3873.81	51.4809
3875.68	50.8179
3877.55	50.4053
3879.42	50.1417
3881.29	50.0677
3883.16	50.1626
3885.03	50.2871
3886.9	50.384
3888.77	50.5201
3890.63	50.7699
3892.5	51.1969
3894.37	51.7366
3896.23	52.1342
3898.1	52.1622
3899.96	52.1341
3901.82	52.0805
3903.69	51.9982
3905.55	51.8679
3907.41	51.7247
3909.27	51.5722
3911.13	51.4372
3912.99	51.1667
3914.85	50.8846
3916.71	50.5582
3918.57	50.2465
3920.43	49.8628
3922.28	49.5164
3924.14	49.17
3926	48.8314
3927.85	48.5397
3929.71	48.1937
3931.56	48.1948
3933.41	48.2397
3935.27	48.3216
3937.12	48.4594
3938.97	48.7319
3940.82	48.9618
3942.67	49.1791
3944.52	49.3769
3946.37	49.5491
3948.22	49.6925
3950.07	49.6933
3951.92	49.6774
3953.77	49.6385
3955.61	49.6742
3957.46	49.7427
3959.3	49.709
3961.15	49.7001
3962.99	49.6776
3964.84	49.6652
3966.68	49.359
3968.52	48.8776
3970.36	48.3501
3972.2	47.9101
3974.05	47.6115
3975.89	47.4841
3977.73	47.4846
3979.56	47.5292
3981.4	47.5932
3983.24	47.6343
3985.08	47.5064
3986.92	47.3065
3988.75	47.0902
3990.59	46.8263
3992.42	46.5718
3994.26	46.4598
3996.09	46.3147
3997.92	45.1483
3999.76	44.413
