#Acq. time (s)=	60
#Accumulations=	2
#Range (cm-¹)=	100...1030
#Windows=	2
#Auto scanning=	Off
#Autofocus=	Off
#Macrospot=	Off
#AutoExposure=	Off
#Spike filter=	Multiple accum.
#Delay time (s)=	2
#Binning=	1
#Readout mode=	Signal
#DeNoise=	Standard
#ICS correction=	On
#Dark correction=	Off
#Inst. Process=	Off
#Detector Gain=	Best Dynamic
#Detector ADC=	50 kHz EM
#Detector EM gain=	100
#Detector temperature (°C)=	-60.09
#Instrument=	LabRAM HR Evol
#Detector=	SIN-EM FIVIS
#Objective=	x100_VIS
#Grating=	1800 (450-850nm)
#ND Filter=	10%
#Laser=	532nm_Edge
#Hole=	30.0125
#Temperature=	0
#Range=	Visible
#StageXY=	75x50mm Scan+
#StageZ=	Z motor
#X (µm)=	0
#Y (µm)=	0
#Z (µm)=	332.4
#Full time(mm:ss)=	4:17
#Project=	23022021
#Sample=	
#Site=	
#Title=	BU19TS(2)-Ore2-rim_1800 (450-850nm)_532nm_Edge_10%_x100_VIS_H30um_60sX2
#Remark=	
#Date=	23.02.2021 10:34
#Acquired=	23.02.2021 10:34:41
100.304	714.907
100.626	713.969
100.948	712.394
101.27	710.081
101.592	707.569
101.914	705.454
102.233	704.301
102.555	704.035
102.877	704.102
103.198	704.222
103.52	703.959
103.84	704.166
104.162	704.643
104.483	705.205
104.805	705.945
105.127	706.725
105.446	707.427
105.768	708.34
106.09	709.265
106.411	710.183
106.733	710.948
107.052	711.513
107.374	711.548
107.696	710.005
108.017	708.555
108.337	706.516
108.658	704.885
108.98	703.976
109.301	703.064
109.623	700.132
109.942	698.207
110.264	697.196
110.585	697.149
110.907	698.512
111.226	700.221
111.548	702.248
111.869	703.682
112.191	704.939
112.51	705.645
112.831	706.152
113.153	706.588
113.474	706.696
113.793	707.467
114.115	708.358
114.436	709.723
114.757	710.459
115.077	709.356
115.398	706.586
115.719	703.625
116.041	701.396
116.36	699.955
116.681	700.043
117.002	700.297
117.322	700.986
117.643	701.993
117.964	703.398
118.285	704.329
118.604	704.427
118.926	704.689
119.247	705.081
119.566	705.596
119.887	706.167
120.208	706.637
120.529	706.75
120.848	707.04
121.17	707.201
121.491	707.318
121.81	707.412
122.131	707.326
122.452	707.014
122.771	706.197
123.092	705.17
123.413	704.352
123.732	704.205
124.053	704.985
124.374	706.041
124.695	707.003
125.014	705.272
125.335	702.474
125.656	699.386
125.975	696.312
126.296	693.761
126.617	692.185
126.936	691.454
127.256	691.413
127.577	692.292
127.896	694.043
128.217	696.849
128.538	700.916
128.857	707.255
129.178	698.834
129.496	705.441
129.817	712.911
130.138	712.372
130.457	710.594
130.777	704.472
131.098	694.137
131.417	682.281
131.738	681.155
132.059	686.566
132.377	702.373
132.698	712.558
133.016	715.281
133.337	715.408
133.658	716.64
133.977	720.579
134.297	712.186
134.618	715.774
134.936	711.131
135.257	707.719
135.576	709.084
135.896	710.073
136.217	710.417
136.535	710.774
136.856	711.235
137.174	711.761
137.495	712.614
137.816	711.255
138.134	707.896
138.455	705.668
138.773	704.28
139.093	703.136
139.414	702.096
139.732	701.096
140.053	701.207
140.371	699.876
140.692	698.214
141.01	696.297
141.331	695.536
141.651	695.565
141.969	695.878
142.29	696.797
142.608	698.447
142.928	697.306
143.247	694.78
143.567	693.284
143.887	692.496
144.206	691.758
144.526	691.221
144.844	690.799
145.164	690.474
145.483	690.249
145.803	689.842
146.121	689.67
146.441	689.425
146.762	685.507
147.08	681.26
147.4	677.657
147.718	674.584
148.038	672.716
148.356	672.898
148.677	673.899
148.995	675.61
149.315	678.384
149.633	681.982
149.953	689.651
150.271	693.654
150.591	694.714
150.909	694.688
151.229	693.843
151.547	692.984
151.867	691.838
152.185	689.124
152.505	685.669
152.823	682.076
153.143	678.775
153.461	675.966
153.781	675.113
154.099	675.676
154.419	674.546
154.737	673.764
155.057	673.378
155.375	673.286
155.695	673.369
156.013	673.615
156.333	673.48
156.65	673.036
156.97	672.803
157.288	672.475
157.608	672.071
157.926	671.56
158.246	670.91
158.563	669.373
158.883	667.345
159.201	665.741
159.521	664.592
159.838	663.832
160.156	662.25
160.476	660.95
160.794	659.688
161.113	658.065
161.431	655.914
161.751	658.693
162.068	662.05
162.388	664.996
162.706	663.663
163.025	662.237
163.343	659.794
163.66	657.321
163.98	655.07
164.298	652.917
164.617	652.556
164.935	652.91
165.254	654.066
165.572	655.531
165.889	657.286
166.209	659.207
166.527	660.339
166.846	661.552
167.164	662.13
167.481	662.282
167.801	658.295
168.118	659.354
168.437	660.801
168.755	661.448
169.074	661.882
169.392	660.341
169.709	658.704
170.029	656.406
170.346	652.94
170.663	650.939
170.983	649.415
171.3	648.482
171.619	648.375
171.937	648.808
172.254	649.772
172.573	651.056
172.89	652.914
173.21	655.235
173.527	657.66
173.844	660.202
174.164	661.163
174.481	661.187
174.798	661.16
175.117	661.102
175.434	660.975
175.752	660.85
176.071	660.751
176.388	660.536
176.707	660.299
177.024	660.049
177.341	659.702
177.661	659.556
177.978	659.475
178.295	659.559
178.614	659.906
178.931	660.599
179.248	661.452
179.567	662.319
179.884	663.105
180.201	662.397
180.52	662.652
180.837	663.449
181.154	664.955
181.473	666.603
181.79	668.209
182.107	669.377
182.426	669.71
182.743	669.527
183.06	668.778
183.379	666.773
183.696	664.387
184.013	662.343
184.33	661.513
184.649	662.692
184.965	664.727
185.282	667.46
185.601	670.15
185.918	668.998
186.235	667.986
186.554	666.977
186.87	666.097
187.187	664.937
187.504	663.68
187.823	662.397
188.14	661.067
188.456	660.076
188.775	659.537
189.092	659.401
189.408	659.621
189.725	660.391
190.044	661.598
190.361	663.449
190.677	666
190.994	669.684
191.313	673.788
191.629	674.428
191.946	673.943
192.262	673.265
192.581	672.316
192.898	671.25
193.214	670.321
193.531	669.634
193.849	669.34
194.166	669.364
194.482	669.701
194.799	670.19
195.118	669.833
195.434	667.819
195.75	666.18
196.067	665.04
196.386	664.041
196.702	663.278
197.018	662.988
197.335	663.751
197.653	665.324
197.97	666.987
198.286	668.795
198.602	670.6
198.919	672.452
199.237	674.278
199.554	676.007
199.87	677.691
200.186	679.33
200.503	679.083
200.821	677.577
201.137	676.065
201.454	674.241
201.77	672.919
202.086	671.806
202.404	671.149
202.721	670.917
203.037	671.116
203.353	671.603
203.669	672.351
203.988	673.533
204.304	674.977
204.62	676.612
204.936	678.457
205.252	680.748
205.568	680.646
205.887	679.963
206.203	678.393
206.519	677.133
206.835	675.962
207.151	675.819
207.467	675.715
207.785	675.818
208.101	675.181
208.417	674.637
208.733	673.866
209.049	674.537
209.365	675.248
209.684	676.199
209.999	677.064
210.315	677.855
210.631	677.189
210.947	675.336
211.263	673.459
211.579	671.874
211.895	670.773
212.213	670.401
212.529	671.004
212.845	672.037
213.161	673.612
213.477	674.796
213.793	675.805
214.108	673.346
214.424	669.515
214.742	666.759
215.058	664.809
215.374	663.963
215.69	663.779
216.005	664.904
216.321	667.154
216.637	670.053
216.953	673.288
217.268	676.756
217.584	676.042
217.902	675.538
218.218	675.058
218.533	674.891
218.849	675.003
219.165	675.301
219.48	675.816
219.796	676.712
220.112	676.062
220.427	675.031
220.743	675.608
221.059	676.875
221.374	676.74
221.692	676.296
222.007	676.157
222.323	676.594
222.639	677.386
222.954	679.067
223.27	681.129
223.585	682.956
223.901	683.758
224.216	683.203
224.532	681.405
224.847	679.356
225.163	679.251
225.478	680.559
225.794	683.203
226.109	686.539
226.424	689.609
226.74	693.923
227.055	697.756
227.371	700.455
227.686	701.514
228.003	702.104
228.319	701.899
228.634	701.129
228.95	699.62
229.265	697.796
229.58	695.828
229.895	693.741
230.211	691.604
230.526	689.383
230.841	687.652
231.157	686.535
231.472	686.309
231.787	686.849
232.102	688.65
232.418	692.135
232.733	697.651
233.048	703.646
233.363	705.785
233.678	708.327
233.994	711.315
234.309	714.927
234.624	718.556
234.939	721.538
235.254	723.822
235.569	724.512
235.884	724.07
236.199	722.675
236.515	720.023
236.827	716.581
237.143	711.859
237.458	707.007
237.773	702.304
238.088	698.547
238.403	696.075
238.718	694.003
239.033	693.194
239.348	693.358
239.663	694.524
239.978	696.328
240.293	695.444
240.608	694.579
240.922	695.543
241.237	697.019
241.552	698.985
241.867	699.953
242.182	700.875
242.497	701.666
242.812	702.975
243.125	704.82
243.439	706.629
243.754	708.352
244.069	709.714
244.384	710.298
244.699	711.015
245.014	712.013
245.328	713.307
245.643	713.141
245.958	711.293
246.273	708.943
246.587	706.68
246.902	704.973
247.215	703.811
247.529	702.819
247.844	702.154
248.159	701.989
248.473	702.35
248.788	703.194
249.103	704.645
249.417	706.407
249.732	708.917
250.045	712.436
250.359	715.501
250.674	716.553
250.988	716.986
251.303	717.11
251.618	716.739
251.932	716.348
252.247	715.733
252.559	714.965
252.874	714.449
253.188	714.155
253.503	714.05
253.817	714.303
254.132	714.213
254.446	714.422
254.761	714.95
255.073	716.137
255.387	717.212
255.702	713.49
256.016	714.441
256.331	720.561
256.645	719.136
256.957	717.288
257.272	715.85
257.586	715.481
257.901	715.841
258.215	716.672
258.529	717.894
258.841	719.432
259.156	721.908
259.47	724.008
259.784	724.89
260.099	725.548
260.413	726.075
260.725	725.818
261.039	725.44
261.354	724.937
261.668	724.434
261.982	724.276
262.294	721.196
262.608	717.433
262.923	712.592
263.237	708.555
263.551	706.862
263.863	707.227
264.177	709.488
264.491	713.431
264.805	718.87
265.119	727.484
265.431	736.18
265.746	732.896
266.06	728.415
266.374	724.838
266.688	722.451
267	720.623
267.314	718.688
267.628	716.761
267.942	713.293
268.254	710.506
268.568	708.186
268.882	707.105
269.196	706.831
269.508	707.738
269.822	708.777
270.135	709.885
270.449	710.779
270.761	709.802
271.075	708.125
271.389	705.489
271.703	703.142
272.015	702.254
272.329	702.339
272.642	705.694
272.956	709.491
273.268	713.525
273.582	716.893
273.896	720.284
274.209	723.27
274.521	723.116
274.835	725.136
275.149	727.468
275.46	730.543
275.774	732.008
276.088	731.731
276.402	730.632
276.713	728.076
277.027	722.986
277.341	717.866
277.652	713.87
277.966	711.443
278.28	709.89
278.593	709.752
278.905	710.756
279.218	712.324
279.532	714.493
279.844	716.852
280.157	719.089
280.471	720.888
280.782	722.637
281.096	724.052
281.409	725.086
281.721	726.155
282.034	727.303
282.348	728.416
282.659	729.515
282.973	730.485
283.286	731.225
283.598	731.134
283.911	730.462
284.225	728.699
284.536	726.474
284.85	724.078
285.163	721.184
285.474	718.266
285.788	715.577
286.101	713.477
286.412	711.729
286.726	710.968
287.039	710.728
287.35	711.336
287.664	713.225
287.977	718.163
288.288	723.184
288.602	727.807
288.915	728.313
289.226	728.034
289.539	728.096
289.851	728.481
290.164	729.324
290.477	730.779
290.788	732.117
291.102	733.43
291.413	735.033
291.726	736.774
292.039	735.474
292.35	732.813
292.663	731.125
292.977	729.793
293.288	728.836
293.601	728.379
293.912	728.698
294.225	729.726
294.538	730.979
294.849	732.172
295.162	733.173
295.473	732.361
295.786	731.355
296.097	730.093
296.41	727.616
296.723	725.821
297.034	725.654
297.347	726.513
297.658	728.246
297.971	730.86
298.284	733.985
298.595	737.227
298.908	735.632
299.219	734.013
299.532	732.372
299.843	730.693
300.156	729.232
300.467	727.986
300.779	726.875
301.092	725.915
301.403	725.207
301.716	725.246
302.027	725.361
302.34	725.685
302.65	725.838
302.963	725.647
303.274	724.899
303.587	722.608
303.897	720.261
304.21	718.348
304.521	717.049
304.834	717.641
305.146	719.214
305.457	721.881
305.77	725.249
306.081	730.185
306.393	726.038
306.704	716.825
307.017	712.727
307.327	711.883
307.64	710.762
307.95	710.112
308.263	709.988
308.574	710.526
308.886	712.297
309.197	714.352
309.509	716.408
309.82	717.827
310.133	718.776
310.443	719.043
310.756	717.177
311.066	713.013
311.379	710.719
311.689	709.78
312.002	709.241
312.312	705.584
312.622	702.603
312.935	700.417
313.245	698.528
313.558	696.662
313.868	694.526
314.181	692.199
314.491	690.491
314.803	689.136
315.114	688.336
315.426	688.59
315.736	689.226
316.049	691.329
316.359	693.516
316.669	695.599
316.982	693.597
317.292	692.047
317.604	690.959
317.915	689.895
318.227	689.183
318.537	688.197
318.849	687.226
319.16	686.231
319.47	685.256
319.782	684.401
320.092	683.794
320.405	683.302
320.715	682.793
321.027	682.458
321.337	682.514
321.647	682.763
321.959	683.298
322.269	683.957
322.582	686.371
322.892	685.653
323.202	683.61
323.514	682.26
323.824	680.449
324.136	678.277
324.446	673.563
324.756	668.963
325.068	664.742
325.378	661.848
325.69	659.928
326	659.492
326.31	659.962
326.622	661.117
326.932	662.784
327.242	664.956
327.554	667.451
327.864	669.969
328.176	672.538
328.486	675.015
328.796	677.312
329.108	679.025
329.418	680.537
329.727	681.198
330.039	680.344
330.349	679.421
330.659	678.646
330.971	678.323
331.281	678.047
331.592	677.887
331.902	677.777
332.212	676.089
332.524	675.626
332.834	675.093
333.143	674.814
333.455	674.273
333.765	674.65
334.074	675.272
334.386	675.835
334.696	676.286
335.006	674.539
335.317	673.758
335.627	673.144
335.937	673.417
336.246	671.262
336.558	668.72
336.868	664.359
337.177	659.718
337.489	655.648
337.798	653.207
338.108	651.445
338.42	650.573
338.729	650.671
339.039	651.424
339.35	652.806
339.66	654.85
339.969	658.255
340.279	662.016
340.59	665.781
340.9	669.002
341.209	670.459
341.521	671.564
341.83	672.193
342.14	672.609
342.449	672.83
342.761	673.303
343.07	673.559
343.379	673.585
343.689	673.564
344	673.366
344.31	672.992
344.619	672.529
344.93	671.763
345.24	670.942
345.549	669.487
345.858	668.649
346.17	666.974
346.479	665.227
346.788	663.293
347.097	663.315
347.407	664.466
347.718	665.495
348.027	667.307
348.336	670.725
348.646	673.843
348.957	674.067
349.266	672.101
349.575	670.338
349.885	668.85
350.196	668.2
350.505	668.181
350.814	668.265
351.123	668.466
351.432	668.893
351.743	669.37
352.053	669.819
352.362	670.247
352.671	670.405
352.98	669.282
353.291	667.604
353.6	665.99
353.909	665.619
354.218	666.284
354.527	666.771
354.838	666.996
355.147	667.183
355.456	666.364
355.765	665.783
356.074	665.257
356.385	664.982
356.694	663.976
357.003	662.504
357.312	660.707
357.621	659.195
357.93	658.586
358.241	658.144
358.55	658.257
358.858	658.935
359.167	660.27
359.476	662.097
359.785	665.251
360.096	669.036
360.405	672.748
360.713	675.104
361.022	677.078
361.331	679.102
361.64	680.855
361.949	682.189
362.259	683.34
362.568	683.776
362.877	683.432
363.186	682.26
363.494	680.731
363.803	678.788
364.112	676.838
364.422	676.253
364.731	676.699
365.04	676.251
365.348	675.981
365.657	675.781
365.966	675.911
366.274	676.838
366.583	678.661
366.892	681.005
367.202	683.454
367.511	685.877
367.819	687.528
368.128	687.925
368.436	688.414
368.745	688.552
369.054	688.866
369.362	689.248
369.671	690.174
369.979	690.871
370.29	691.782
370.598	690.806
370.907	690.291
371.215	690.344
371.523	691.287
371.832	693.07
372.14	695.925
372.449	699.392
372.757	702.298
373.066	702.844
373.374	702.413
373.682	701.325
373.991	699.88
374.299	697.372
374.607	694.891
374.918	692.232
375.226	689.908
375.534	688.051
375.843	687.242
376.151	685.911
376.459	684.948
376.768	684.387
377.076	684.426
377.384	685.813
377.692	688.871
378	692.746
378.309	696.999
378.617	701.172
378.925	704.868
379.233	707.654
379.541	709.354
379.85	710.978
380.158	712.362
380.466	713.438
380.774	714.222
381.082	714.139
381.39	714.008
381.698	713.795
382.007	713.695
382.315	713.73
382.623	712.546
382.931	710.405
383.239	708.742
383.547	706.363
383.855	699.162
384.163	698.632
384.471	699.009
384.779	699.799
385.087	701.079
385.395	702.257
385.703	705
386.011	708.548
386.319	712.127
386.627	716.188
386.935	718.861
387.243	719.196
387.55	719.164
387.858	718.933
388.166	718.466
388.474	718.256
388.782	718.646
389.09	718.477
389.398	718.467
389.706	718.463
390.013	718.554
390.321	718.766
390.627	719.225
390.935	720.005
391.242	720.985
391.55	722.322
391.858	723.815
392.166	724.969
392.474	725.887
392.781	726.019
393.089	725.903
393.397	725.465
393.704	724.849
394.012	724.24
394.32	723.7
394.627	723.335
394.935	723.031
395.241	722.896
395.548	723.194
395.856	723.852
396.164	724.856
396.471	726.394
396.779	727.951
397.086	729.417
397.394	730.652
397.702	731.462
398.009	731.553
398.315	731.013
398.622	729.456
398.93	727.564
399.237	725.528
399.545	723.649
399.852	722.171
400.16	722.791
400.467	723.944
400.775	723.761
401.08	723.252
401.387	724.05
401.695	725.286
402.002	727.251
402.31	729.484
402.617	731.153
402.924	731.328
403.23	731.121
403.537	730.46
403.845	729.464
404.152	728.375
404.459	727.491
404.767	727.401
405.074	728.061
405.379	729.086
405.686	730.09
405.994	731.461
406.301	732.772
406.608	734
406.916	735.484
407.221	736.854
407.528	738.544
407.835	740.364
408.142	742.174
408.45	743.91
408.757	745.032
409.062	745.822
409.369	745.818
409.676	745.893
409.983	746.232
410.291	746.628
410.596	747.218
410.903	747.866
411.21	748.227
411.517	748.123
411.824	747.332
412.129	746.033
412.436	744.581
412.743	743.274
413.05	742.43
413.357	742.121
413.662	742.698
413.969	743.992
414.276	745.702
414.583	747.378
414.89	749.58
415.195	751.966
415.502	754.166
415.809	756.132
416.116	757.838
416.421	759.326
416.728	760.546
417.035	761.144
417.342	760.415
417.647	760.402
417.954	761.199
418.26	761.335
418.567	760.596
418.872	759.684
419.179	758.127
419.486	756.517
419.793	755.598
420.097	755.941
420.404	751.508
420.711	748.798
421.018	747.318
421.323	747.253
421.629	751.36
421.936	752.844
422.243	754.813
422.548	756.821
422.854	757.755
423.161	757.785
423.466	758.655
423.772	760.179
424.079	760.962
424.386	760.19
424.69	759.29
424.997	758.424
425.304	757.772
425.608	757.218
425.915	756.695
426.221	756.308
426.526	755.791
426.833	755.702
427.139	755.612
427.446	755.774
427.75	756.173
428.057	756.295
428.363	756.475
428.668	756.563
428.974	756.734
429.281	756.98
429.585	757.369
429.892	757.978
430.198	758.766
430.503	759.956
430.809	760.832
431.116	761.438
431.42	761.813
431.726	760.767
432.033	759.39
432.337	757.871
432.644	756.428
432.95	755.16
433.254	754.338
433.561	754.001
433.867	754.157
434.171	754.734
434.478	755.584
434.782	757.074
435.088	758.681
435.395	760.534
435.699	762.534
436.005	764.303
436.311	765.644
436.616	766.714
436.922	767.402
437.228	768.083
437.532	768.054
437.839	766.116
438.143	764.315
438.449	762.701
438.755	761.292
439.059	760.204
439.365	759.456
439.669	759.294
439.976	759.472
440.282	760.621
440.586	762.997
440.892	766.114
441.196	767.881
441.502	768.943
441.808	769.883
442.112	770.454
442.418	770.385
442.722	769.791
443.028	768.637
443.332	767.073
443.638	765.101
443.944	762.764
444.248	760.102
444.554	757.264
444.858	754.516
445.164	752.164
445.468	750.347
445.774	749.726
446.08	749.896
446.384	751.981
446.69	754.83
446.994	759.635
447.3	764.934
447.604	770.06
447.91	773.28
448.213	773.338
448.519	774.022
448.825	774.979
449.129	776.662
449.435	777.263
449.739	775.754
450.044	773.842
450.348	771.747
450.654	769.599
450.958	767.676
451.263	766.284
451.567	765.608
451.873	765.711
452.177	766.69
452.482	767.833
452.786	769.448
453.092	770.938
453.395	772.352
453.701	773.468
454.005	774.476
454.31	775.395
454.614	776.335
454.92	777.356
455.223	778.439
455.529	779.381
455.832	780.06
456.138	780.5
456.442	780.972
456.747	781.327
457.051	781.766
457.356	782.36
457.66	782.877
457.965	783.244
458.269	782.794
458.574	782.294
458.878	781.888
459.183	781.547
459.487	782.727
459.792	785.715
460.096	790.123
460.399	794.846
460.705	796.288
461.008	797.569
461.314	798.307
461.617	798.588
461.922	798.186
462.226	797.076
462.531	795.146
462.835	792.222
463.138	789.252
463.443	787.287
463.747	786.964
464.052	787.29
464.355	788.884
464.661	792.994
464.964	795.215
465.267	794.735
465.572	794.507
465.876	794.435
466.181	791.716
466.484	789.553
466.789	788.291
467.093	788.508
467.396	789.122
467.701	790.934
468.004	793.718
468.309	797.204
468.613	801.478
468.916	806.36
469.221	811.372
469.524	805.249
469.829	800.365
470.132	796.288
470.435	794.187
470.74	794.918
471.044	796.717
471.347	798.48
471.652	801.586
471.955	809.362
472.26	806.24
472.563	803.113
472.866	800.248
473.171	798.818
473.474	798.492
473.777	799.796
474.082	800.923
474.385	801.709
474.69	802.342
474.993	800.055
475.296	794.49
475.601	797.782
475.904	803.986
476.207	803.558
476.511	802.653
476.814	802.685
477.117	803.428
477.422	806.272
477.725	808.77
478.028	811.729
478.333	813.655
478.635	811.495
478.938	809.323
479.243	807.216
479.546	805.46
479.849	803.847
480.154	802.715
480.456	801.782
480.759	801.538
481.064	801.916
481.367	803.319
481.669	805.995
481.972	807.03
482.277	801.873
482.579	797.913
482.882	794.593
483.187	792.727
483.49	791.966
483.792	792.242
484.095	793.944
484.399	796.282
484.702	794.647
485.005	792.671
485.309	794.027
485.612	796.165
485.915	798.737
486.217	801.189
486.522	802.102
486.824	803.171
487.127	804.033
487.431	804.518
487.734	804.732
488.036	804.644
488.339	804.286
488.643	803.294
488.946	802.232
489.248	800.972
489.551	799.658
489.855	798.378
490.158	798.929
490.46	800.339
490.763	799.885
491.067	799.94
491.369	800.158
491.672	800.768
491.974	802.058
492.277	804.57
492.581	804.985
492.883	804.526
493.186	803.895
493.488	803.118
493.792	802.682
494.095	802.291
494.397	801.663
494.699	800.58
495.002	798.772
495.306	793.603
495.608	789.106
495.91	793.428
496.213	795.827
496.515	796.988
496.819	795.581
497.121	794.489
497.424	794.182
497.726	794.558
498.028	795.722
498.332	797.325
498.634	796.491
498.936	796.277
499.239	797.495
499.541	794.954
499.843	790.095
500.147	780.619
500.449	777.003
500.751	775.277
501.053	775.556
501.355	775.939
501.659	776.966
501.961	782.338
502.264	786.922
502.566	788.66
502.868	791.696
503.17	777.314
503.472	781.615
503.776	788.261
504.078	792.894
504.38	795.795
504.682	794.911
504.983	792.826
505.285	789.699
505.587	786.607
505.891	783.796
506.193	781.289
506.495	779.124
506.797	777.106
507.099	775.25
507.401	774.369
507.703	774.212
508.004	774.402
508.308	774.949
508.61	775.653
508.912	776.631
509.214	777.741
509.516	778.485
509.817	779.43
510.119	780.458
510.421	781.482
510.723	782.438
511.024	783.283
511.328	784.031
511.63	784.965
511.932	785.899
512.233	783.257
512.535	780.508
512.837	778.266
513.138	777.042
513.44	776.239
513.742	775.938
514.043	775.842
514.345	776.433
514.647	777.308
514.948	778.342
515.252	779.954
515.554	787.937
515.855	789.114
516.157	788.917
516.458	787.603
516.76	786.219
517.061	784.654
517.363	782.742
517.665	779.232
517.966	775.667
518.268	773.304
518.569	773.757
518.871	774.645
519.172	773.245
519.474	772.128
519.775	771.07
520.076	770.238
520.378	769.493
520.679	768.937
520.981	768.468
521.282	768.401
521.584	768.534
521.885	768.864
522.186	769.326
522.488	769.744
522.789	770.069
523.09	770.168
523.392	769.883
523.693	768.274
523.994	767.114
524.296	766.064
524.597	764.992
524.898	764.029
525.2	763.347
525.501	762.437
525.802	761.532
526.103	760.353
526.405	759.672
526.706	759.831
527.007	760.279
527.308	761.473
527.609	762.83
527.911	764.119
528.212	764.975
528.513	765.436
528.814	765.543
529.115	765.994
529.417	766.478
529.718	767.426
530.019	768.585
530.32	770.372
530.621	772.052
530.922	773.797
531.223	775.325
531.524	776.982
531.825	778.047
532.126	780.314
532.427	782.711
532.726	784.637
533.027	785.761
533.328	784.183
533.629	781.053
533.93	777.99
534.231	774.297
534.532	770.612
534.833	767.256
535.134	764.505
535.435	763
535.736	762.615
536.037	763.453
536.338	764.75
536.637	766.127
536.938	766.948
537.239	768.131
537.54	769.694
537.84	771.233
538.141	773.507
538.442	775.909
538.743	778.435
539.044	780.721
539.345	782.018
539.643	780.701
539.944	776.532
540.245	774.414
540.546	774.948
540.847	776.589
541.147	776.98
541.448	775.998
541.749	775.937
542.047	776.978
542.348	774.774
542.649	769.502
542.95	764.86
543.25	762.586
543.551	760.855
543.852	759.815
544.15	759.411
544.451	759.859
544.752	760.975
545.052	762.929
545.353	765.493
545.653	768.601
545.952	771.917
546.253	775.249
546.553	777.854
546.854	780.392
547.154	780.971
547.455	780.573
547.753	779.374
548.054	777.904
548.354	776.503
548.655	776.106
548.955	775.018
549.256	772.285
549.554	770.617
549.855	770.235
550.155	770.837
550.456	772.212
550.756	774.008
551.055	775.793
551.355	775.775
551.655	774.808
551.956	773.807
552.256	772.516
552.555	771.227
552.855	770.172
553.155	769.54
553.456	770.516
553.756	772.471
554.054	775.81
554.355	779.296
554.655	779.029
554.955	778.257
555.253	778.98
555.554	780.507
555.854	782.201
556.154	784.361
556.453	786.855
556.753	789.546
557.053	788.432
557.353	786.933
557.651	785.675
557.952	784.947
558.252	785.109
558.552	787.297
558.85	789.886
559.15	792.791
559.45	795.681
559.751	798.022
560.049	799.556
560.349	799.644
560.649	799.624
560.949	799.502
561.247	798.78
561.547	797.613
561.847	795.892
562.145	793.849
562.445	791.714
562.745	789.944
563.045	788.58
563.343	787.665
563.643	787.156
563.943	787.664
564.241	789.673
564.541	792.575
564.841	795.927
565.141	799.202
565.439	802.206
565.739	804.318
566.039	806.398
566.337	807.932
566.637	808.878
566.937	809.427
567.235	809.632
567.535	810.063
567.835	809.867
568.132	809.784
568.432	809.805
568.732	809.786
569.03	809.705
569.33	809.158
569.63	808.543
569.927	807.686
570.227	806.804
570.527	806.111
570.825	805.68
571.124	805.772
571.424	806.601
571.722	807.647
572.022	808.966
572.321	810.084
572.619	811.073
572.919	811.941
573.218	812.814
573.516	813.474
573.816	814.09
574.113	814.638
574.413	814.886
574.713	814.763
575.01	814.362
575.31	813.446
575.61	812.128
575.907	810.707
576.207	809.35
576.504	807.991
576.804	808.226
577.104	809.178
577.401	812.279
577.701	816.457
577.998	821.082
578.298	825.97
578.597	830.751
578.895	835.012
579.194	836.479
579.492	838.293
579.791	839.998
580.091	841.213
580.388	841.526
580.688	841.899
580.985	841.456
581.284	840.673
581.582	839.795
581.881	839.235
582.181	839.232
582.478	840.487
582.777	842.861
583.075	844.695
583.374	847.025
583.671	849.939
583.971	851.331
584.27	850.877
584.567	850.422
584.867	850.857
585.164	852.133
585.463	854.082
585.761	856.671
586.06	859.614
586.357	861.872
586.656	861.977
586.954	860.458
587.253	858.992
587.552	857.811
587.849	857.086
588.148	856.904
588.446	857.371
588.745	858.708
589.042	861.349
589.341	865.079
589.638	869.177
589.938	872.827
590.235	875.741
590.534	878.824
590.831	882.242
591.13	886.566
591.427	890.734
591.726	894.574
592.023	897.901
592.322	900.537
592.619	901.985
592.918	902.332
593.215	901.503
593.514	900.679
593.811	899.374
594.11	898.862
594.407	899.635
594.706	902.489
595.003	903.409
595.26	903.867
595.563	904.152
595.864	904.789
596.165	905.627
596.466	907.669
596.767	910.806
597.068	914.529
597.369	918.609
597.672	922.584
597.972	926.398
598.273	929.956
598.574	929.153
598.875	929.26
599.176	928.305
599.477	927.869
599.78	927.423
600.081	930.158
600.381	933.099
600.682	934.522
600.983	937.201
601.284	940.761
601.585	944.188
601.885	946.122
602.186	947.652
602.489	949.349
602.79	949.602
603.09	949.245
603.391	948.811
603.692	949.144
603.993	949.937
604.293	951.326
604.594	953.74
604.895	956.59
605.195	960.347
605.496	964.609
605.799	966.766
606.099	968.001
606.4	967.902
606.7	967.747
607.001	967.504
607.302	967.646
607.602	968.767
607.903	970.074
608.203	971.471
608.504	972.815
608.805	974.24
609.105	975.892
609.406	977.789
609.706	981.056
610.009	985.252
610.309	987.686
610.61	987.875
610.91	987.13
611.211	985.863
611.511	984.82
611.811	983.572
612.112	981.939
612.412	980.541
612.713	979.452
613.013	979.706
613.314	986.543
613.614	991.053
613.914	997.401
614.215	1000.19
614.515	1001.15
614.815	1003.02
615.116	1004.58
615.416	1006.46
615.716	1007.93
616.017	1008.31
616.317	1006.79
616.617	1007.43
616.918	1010.55
617.218	1014.44
617.518	1018.35
617.818	1021.24
618.119	1023.59
618.419	1025.19
618.719	1025.25
619.019	1023.83
619.319	1023.56
619.62	1021.93
619.92	1020.7
620.22	1020.16
620.52	1021.57
620.82	1024.13
621.12	1027.28
621.421	1030.92
621.721	1034.89
622.021	1037.86
622.321	1041.55
622.621	1046.06
622.921	1050.2
623.221	1053.84
623.521	1056.93
623.821	1058.29
624.121	1059.04
624.421	1058.89
624.721	1057.38
625.021	1055
625.321	1051.76
625.621	1047.41
625.921	1043.22
626.221	1040.57
626.519	1039.35
626.819	1037.17
627.119	1036.65
627.419	1036.8
627.719	1037.83
628.019	1038.34
628.319	1038.85
628.619	1039.36
628.919	1040.09
629.219	1040.48
629.518	1040.86
629.818	1041.67
630.118	1042.88
630.418	1044.9
630.716	1047.37
631.016	1051.66
631.315	1055.42
631.615	1056.14
631.915	1056.73
632.215	1056.4
632.514	1050.11
632.814	1050.29
633.114	1051.61
633.414	1052.35
633.713	1053.52
634.011	1055.08
634.311	1057.71
634.61	1061.46
634.91	1066.2
635.21	1067.71
635.51	1065.84
635.809	1063.89
636.109	1061.89
636.406	1059.91
636.706	1058.51
637.006	1057.14
637.305	1055.93
637.605	1055.07
637.904	1054.33
638.204	1053.71
638.504	1052.25
638.801	1047.49
639.101	1043.41
639.4	1038.85
639.7	1035.14
639.999	1032.34
640.299	1030.62
640.598	1030.4
640.896	1031.64
641.195	1034.05
641.495	1037.64
641.794	1042.37
642.094	1048.6
642.393	1056.18
642.69	1063.77
642.99	1067.88
643.289	1065.8
643.589	1061.69
643.888	1057.36
644.188	1053.14
644.485	1049.91
644.784	1046.87
645.084	1044.71
645.383	1042.92
645.682	1042.09
645.98	1042.2
646.279	1042.74
646.578	1043.75
646.877	1045.21
647.177	1046.92
647.474	1048.11
647.773	1058.82
648.073	1060.05
648.372	1059.63
648.671	1057.48
648.968	1054.91
649.267	1050.72
649.567	1046.41
649.866	1042.5
650.165	1039.29
650.462	1037.38
650.761	1035.77
651.06	1034.76
651.36	1034.14
651.657	1034.07
651.956	1034.5
652.255	1035.17
652.554	1034.43
652.853	1032.98
653.15	1031.31
653.449	1028.84
653.748	1026.65
654.047	1024.71
654.344	1023.4
654.643	1023.04
654.943	1022.82
655.242	1022.39
655.539	1022.55
655.838	1024.5
656.136	1026.94
656.435	1026.41
656.732	1021.76
657.031	1017.01
657.33	1012.95
657.629	1016.67
657.926	1015.91
658.225	1010.71
658.524	1000.98
658.821	999.308
659.12	998.618
659.419	1000.55
659.718	997.355
660.014	995.04
660.313	993.288
660.612	992.484
660.909	990.816
661.208	988.553
661.507	987.287
661.805	987.656
662.102	987.147
662.401	984.025
662.7	983.934
662.996	984.411
663.295	985.164
663.594	985.369
663.891	986.122
664.189	985.953
664.488	984.77
664.785	982.292
665.083	979.881
665.382	976.973
665.679	973.878
665.977	970.612
666.276	967.361
666.573	964.932
666.871	963.284
667.17	962.096
667.467	960.483
667.765	958.756
668.064	955.989
668.36	952.632
668.659	948.881
668.957	944.558
669.254	940.155
669.553	935.997
669.851	933.181
670.148	930.905
670.446	930.959
670.745	931.435
671.041	930.352
671.34	929.056
671.638	928.383
671.935	928.342
672.233	929.234
672.529	930.786
672.828	932.441
673.126	930.596
673.423	926.693
673.721	922.326
674.02	917.765
674.316	913.761
674.614	909.836
674.911	906.339
675.209	903.235
675.507	900.365
675.804	897.91
676.102	895.672
676.398	893.755
676.697	892.114
676.995	891.157
677.291	890.356
677.589	886.663
677.886	885.624
678.184	884.995
678.482	883.702
678.779	882.303
679.077	880.771
679.373	878.579
679.671	876.214
679.967	873.71
680.266	871.123
680.564	868.434
680.86	866.316
681.158	864.522
681.454	863.465
681.752	862.129
682.048	860.894
682.347	859.089
682.645	857.533
682.941	857.005
683.239	856.797
683.535	856.783
683.833	856.339
684.129	855.121
684.427	853.367
684.723	851.405
685.021	849.273
685.319	847.107
685.615	844.336
685.913	841.62
686.209	839.003
686.507	836.528
686.803	834.434
687.101	832.707
687.397	831.727
687.695	830.849
687.991	830.648
688.289	830.77
688.585	830.743
688.883	830.51
689.179	828.986
689.477	827.68
689.772	826.275
690.07	824.72
690.366	823.301
690.664	821.253
690.96	819.303
691.258	817.566
691.553	816.03
691.851	816.033
692.147	816.314
692.445	815.365
692.741	814.029
693.038	812.233
693.334	810.69
693.632	807.729
693.928	810.046
694.225	812.503
694.521	813.386
694.819	813.405
695.115	812.346
695.412	810.411
695.708	808.868
696.006	807.348
696.301	805.774
696.597	804.243
696.895	801.997
697.19	796.848
697.488	791.935
697.783	787.6
698.081	784.565
698.377	782.024
698.674	779.929
698.97	778.18
699.267	779.16
699.563	780.393
699.858	779.59
700.156	781.697
700.452	782.242
700.749	782.576
701.045	782.658
701.342	779.441
701.638	775.367
701.933	776.724
702.23	778.016
702.526	779.485
702.823	778.665
703.119	777.265
703.416	774.001
703.712	770.81
704.007	767.093
704.305	764.061
704.6	761.712
704.897	750.855
705.193	744.782
705.488	741.033
705.785	738.462
706.081	737.684
706.378	737.943
706.673	740.249
706.969	740.277
707.266	741.726
707.561	744.344
707.857	748.241
708.154	752.341
708.449	752.793
708.746	750.988
709.042	748.997
709.337	747.132
709.634	745.366
709.929	744.613
710.224	744.163
710.522	743.726
710.817	741.935
711.114	740.466
711.409	739.577
711.704	739.677
712.002	740.391
712.297	741.64
712.592	742.999
712.889	743.247
713.184	741.436
713.479	739.7
713.776	737.724
714.071	735.528
714.366	733.417
714.663	730.999
714.958	729.15
715.254	727.391
715.551	725.272
715.846	723.795
716.141	722.357
716.438	718.886
716.733	715.972
717.028	713.967
717.325	712.891
717.62	712.714
717.914	712.979
718.211	713.513
718.506	714.567
718.801	715.704
719.096	716.8
719.393	717.946
719.688	716.76
719.983	715.586
720.28	714.896
720.575	714.174
720.87	713.316
721.164	711.857
721.461	709.481
721.756	706.683
722.051	703.459
722.348	700.151
722.642	697.871
722.937	697.793
723.232	699.631
723.529	703.935
723.824	704.233
724.118	704.452
724.415	704.637
724.71	704.595
725.005	703.466
725.299	702.472
725.596	701.656
725.891	700.825
726.185	700.809
726.48	700.933
726.777	700.973
727.071	700.684
727.366	698.401
727.661	695.869
727.957	693.048
728.252	690.128
728.546	687.645
728.841	685.547
729.136	683.517
729.432	681.24
729.727	679.452
730.021	678.159
730.316	677.542
730.612	678.429
730.907	680.249
731.201	682.821
731.496	686.389
731.791	690.933
732.087	691.956
732.381	687.286
732.676	682.407
732.97	678.157
733.265	674.638
733.561	672.035
733.856	670.62
734.15	670.522
734.445	671.177
734.739	672.286
735.035	667.009
735.33	661.565
735.624	656.769
735.919	652.722
736.213	649.958
736.509	649.144
736.804	649.917
737.098	650.514
737.392	652.084
737.687	653.975
737.981	655.83
738.277	657.581
738.571	658.92
738.866	659.782
739.16	660.941
739.454	662.555
739.748	667.221
740.045	670.92
740.339	670.768
740.633	667.881
740.927	663.735
741.222	660.401
741.516	657.656
741.81	655.751
742.106	654.545
742.4	653.916
742.694	653.845
742.989	654.282
743.283	655.027
743.577	656.151
743.871	657.429
744.165	658.888
744.461	660.476
744.755	662.023
745.049	663.605
745.343	665.072
745.637	666.999
745.931	670.708
746.225	669.372
746.519	667.5
746.813	665.165
747.109	662.515
747.403	659.915
747.697	657.463
747.991	655.352
748.285	653.833
748.579	653.227
748.873	653.269
749.167	653.821
749.461	654.043
749.755	654.322
750.049	654.61
750.345	652.795
750.639	649.815
750.933	647.483
751.227	645.522
751.52	643.941
751.814	641.705
752.108	639.827
752.402	638.518
752.696	637.763
752.99	637.409
753.283	638.191
753.577	636.668
753.871	638
754.165	640.741
754.458	645.112
754.754	650.842
755.048	653.407
755.342	653.615
755.635	653.654
755.929	653.892
756.223	654.147
756.517	654.247
756.81	653.664
757.104	651.892
757.398	648.635
757.691	647.434
757.985	647.709
758.279	648.176
758.572	648.134
758.866	647.731
759.159	647.658
759.453	647.346
759.747	645.712
760.04	643.691
760.334	641.693
760.627	640.466
760.921	639.567
761.214	639.088
761.508	639.017
761.801	638.617
762.095	636.685
762.388	635.166
762.682	636.726
762.975	638.67
763.269	640.145
763.562	641.378
763.856	642.308
764.149	642.889
764.443	642.725
764.736	640.684
765.03	638.086
765.323	634.411
765.616	630.853
765.91	628.588
766.203	627.993
766.497	630
766.79	631.572
767.083	634.115
767.377	636.04
767.67	636.116
767.961	636.574
768.255	637.594
768.548	639.181
768.841	640.922
769.135	643.113
769.428	645.308
769.721	643.644
770.014	641.01
770.308	638.1
770.601	636.604
770.894	635.147
771.187	632.305
771.481	629.971
771.774	628.451
772.067	628.172
772.36	628.703
772.651	630.159
772.944	632.852
773.238	635.682
773.531	637.731
773.824	639.05
774.117	640.095
774.41	640.561
774.703	640.478
774.996	639.849
775.289	638.748
775.583	637.812
775.874	637.268
776.167	637.264
776.46	637.533
776.753	637.719
777.046	637.732
777.339	638.479
777.632	639.704
777.925	641.482
778.216	642.977
778.509	644.058
778.802	644.442
779.095	644.003
779.388	641.857
779.681	639.37
779.974	636.887
780.267	634.134
780.557	632.375
780.85	631.221
781.143	631.624
781.436	629.8
781.729	628.794
782.022	628.256
782.315	627.991
782.606	627.251
782.898	626.942
783.191	629.685
783.484	629.795
783.777	629.472
784.07	628.792
784.361	628.542
784.653	630.421
784.946	635.687
785.239	633.596
785.532	629.987
785.824	625.099
786.115	621.172
786.408	618.405
786.701	617.168
786.993	617.126
787.286	618.564
787.577	621.65
787.869	625.999
788.162	630.526
788.455	630.812
788.747	631.22
789.04	631.597
789.331	632.402
789.623	634
789.916	637.143
790.208	639.49
790.499	641.327
790.792	642.753
791.084	640.719
791.377	638.041
791.669	635.503
791.96	633.785
792.252	632.693
792.545	632.565
792.838	632.197
793.128	632.441
793.421	633.131
793.713	635.769
794.005	638.446
794.298	640.607
794.588	642.426
794.881	642.386
795.173	641.373
795.466	640.61
795.756	640.077
796.049	640.189
796.341	639.392
796.633	640.655
796.924	639.923
797.216	633.52
797.509	632.696
797.799	632.719
798.091	633.931
798.384	635.65
798.676	637.321
798.966	638.905
799.259	639.776
799.551	639.387
799.843	639.247
800.134	639.147
800.426	638.541
800.718	637.555
801.008	636.36
801.301	635.301
801.593	633.724
801.885	632.172
802.175	631.534
802.467	631.674
802.76	632.006
803.05	632.17
803.342	632.667
803.634	633.148
803.924	633.736
804.217	634.237
804.509	634.837
804.801	635.425
805.091	635.915
805.383	636.37
805.675	636.567
805.965	636.712
806.257	636.481
806.549	636.306
806.84	637.707
807.132	636.083
807.424	634.796
807.714	633.731
808.006	632.888
808.298	632.336
808.588	631.928
808.88	631.558
809.172	631.367
809.462	630.363
809.754	629.082
810.044	628.009
810.336	627.429
810.628	627.09
810.918	626.792
811.209	625.703
811.501	624.408
811.791	624.735
812.083	626.686
812.375	629.984
812.665	633.029
812.957	634.519
813.247	632.776
813.539	630.407
813.83	627.951
814.12	626.118
814.412	624.75
814.702	624.88
814.994	625.526
815.285	626.556
815.575	627.687
815.867	628.888
816.159	629.584
816.449	630.085
816.74	630.625
817.03	631.088
817.322	628.248
817.612	627.077
817.903	625.781
818.195	624.528
818.485	624.452
818.776	624.919
819.066	626.181
819.358	627.368
819.649	628.498
819.939	629.68
820.231	630.811
820.52	631.977
820.812	633.485
821.102	634.578
821.393	632.947
821.685	630.942
821.974	629.902
822.266	629.114
822.555	628.81
822.847	628.434
823.137	629.741
823.428	632.678
823.718	634.493
824.009	635.768
824.299	636.397
824.59	635.987
824.882	635.791
825.171	636.604
825.463	636.857
825.752	633.184
826.043	629.964
826.333	627.938
826.624	626.627
826.914	625.876
827.205	625.707
827.495	625.815
827.786	626.245
828.075	627.241
828.367	629.431
828.656	631.953
828.948	634.579
829.237	636.143
829.528	637.525
829.818	638.777
830.109	639.212
830.398	637.872
830.689	637.685
830.979	635.518
831.27	635.068
831.559	635.523
831.851	633.838
832.14	633.026
832.431	632.372
832.72	631.612
833.012	630.137
833.301	628.476
833.592	626.985
833.881	625.638
834.172	624.851
834.462	624.304
834.751	624.118
835.042	623.977
835.331	624
835.622	624.148
835.911	623.342
836.202	621.449
836.492	620.566
836.783	618.5
837.072	617.769
837.363	617.381
837.652	617.178
837.941	616.932
838.232	617.153
838.521	617.636
838.812	618.611
839.101	620.058
839.392	622.648
839.681	622.496
839.97	621.066
840.261	620.219
840.55	619.25
840.841	616.776
841.13	614.587
841.419	613.003
841.71	612.237
841.999	612.415
842.29	615.305
842.579	615.569
842.87	616.016
843.159	615.914
843.448	611.283
843.739	611.809
844.027	612.88
844.316	610.904
844.607	609.389
844.896	608.359
845.187	607.475
845.476	606.484
845.764	604.589
846.055	604.04
846.344	603.463
846.635	602.833
846.924	601.739
847.212	601.799
847.503	602.678
847.792	604.391
848.081	601.156
848.371	597.997
848.66	595.255
848.949	593.104
849.24	591.532
849.528	591.383
849.819	592.451
850.108	592.95
850.396	592.842
850.687	592.694
850.976	592.656
851.264	593.016
851.555	593.24
851.844	593.534
852.132	593.917
852.423	594.177
852.711	594.363
853	594.434
853.291	594.244
853.579	593.639
853.868	592.522
854.156	591.027
854.447	589.486
854.735	588.019
855.024	587.191
855.314	586.149
855.603	584.68
855.891	583.366
856.182	582.1
856.47	582.506
856.759	583.482
857.049	584.568
857.338	584.368
857.626	583.646
857.915	582.393
858.205	580.893
858.493	579.346
858.782	577.989
859.072	576.64
859.361	575.614
859.649	573.491
859.937	570.729
860.228	568.666
860.516	567.295
860.804	566.804
861.093	566.762
861.383	566.876
861.671	565.898
861.96	565.023
862.248	564.253
862.538	563.602
862.826	563.314
863.115	562.867
863.403	562.455
863.693	561.942
863.982	561.374
864.27	560.435
864.558	560.13
864.848	559.834
865.136	559.581
865.425	559.258
865.713	559.071
866.003	558.878
866.291	557.979
866.579	556.716
866.867	555.309
867.157	553.942
867.446	552.371
867.734	550.892
868.022	549.707
868.31	548.47
868.6	547.262
868.888	546.166
869.176	545.194
869.464	544.068
869.752	543.151
870.042	542.34
870.33	541.827
870.618	541.11
870.906	540.204
871.194	539.667
871.484	539.433
871.772	539.411
872.06	539.154
872.348	539.103
872.636	539.972
872.924	539.828
873.214	539.858
873.502	539.562
873.79	539.943
874.078	539.957
874.366	540.495
874.654	540.987
874.944	541.229
875.232	540.796
875.519	540.42
875.807	539.937
876.095	539.628
876.383	539.251
876.673	539.547
876.961	537.284
877.248	535.851
877.536	535.604
877.824	535.717
878.112	536.818
878.4	537.193
878.687	535.959
878.977	531.907
879.265	528.388
879.553	524.952
879.84	521.841
880.128	519.254
880.416	516.898
880.704	515.132
880.991	517.606
881.281	518.115
881.569	516.247
881.856	515.274
882.144	514.466
882.432	513.879
882.719	513.31
883.007	512.796
883.294	512.249
883.582	511.8
883.87	511.234
884.159	510.451
884.447	509.639
884.734	508.637
885.022	507.409
885.31	505.999
885.597	504.755
885.885	503.587
886.172	503.357
886.46	503.458
886.747	503.627
887.035	503.821
887.322	503.79
887.61	502.757
887.899	500.718
888.187	499.528
888.474	499.592
888.762	500.218
889.049	501.303
889.336	502.701
889.624	503.91
889.911	503.922
890.199	504.018
890.486	504.091
890.773	504.123
891.061	504.129
891.348	504.109
891.636	504.102
891.923	504.131
892.21	503.923
892.498	503.52
892.785	503.369
893.072	503.524
893.36	503.545
893.647	501.879
893.934	500.062
894.221	498.385
894.509	496.859
894.796	494.78
895.083	493.299
895.37	492.672
895.658	492.566
895.945	492.431
896.232	492.211
896.519	492.185
896.806	492.896
897.094	494.224
897.381	495.387
897.668	496.232
897.955	496.718
898.242	497.03
898.529	497.157
898.817	497.179
899.104	496.525
899.391	495.489
899.678	493.036
899.965	490.249
900.252	488.125
900.539	487.615
900.826	487.365
901.113	487.016
901.4	486.489
901.687	484.775
901.974	484.519
902.261	484.353
902.548	484.168
902.835	483.417
903.122	482.204
903.409	480.935
903.696	479.644
903.981	479.138
904.268	478.81
904.555	478.857
904.842	479
905.129	479.038
905.416	479.063
905.703	478.925
905.99	478.913
906.277	478.998
906.564	479.304
906.85	479.973
907.137	479.73
907.424	479.346
907.709	479.612
907.996	480.365
908.283	481.102
908.57	481.894
908.856	482.721
909.143	483.138
909.43	483.516
909.717	483.812
910.003	483.977
910.29	483.824
910.575	483.254
910.862	482.167
911.148	480.978
911.435	479.693
911.722	478.125
912.009	476.595
912.295	475.198
912.582	474.353
912.867	474.528
913.153	474.733
913.44	475.052
913.727	475.539
914.013	475.881
914.3	476.866
914.587	478.229
914.873	478.981
915.158	479.973
915.445	481.2
915.731	480.922
916.018	481.409
916.304	481.959
916.591	482.478
916.875	482.185
917.162	480.752
917.448	479.244
917.735	477.869
918.021	476.422
918.308	475.085
918.593	473.921
918.879	472.391
919.166	470.985
919.452	469.705
919.738	468.618
920.025	467.806
920.309	467.593
920.596	467.696
920.882	468.112
921.169	469.018
921.455	470.31
921.74	471.948
922.026	474.114
922.312	474.92
922.599	474.039
922.885	473.941
923.169	474.237
923.456	474.574
923.742	475.062
924.028	475.58
924.313	475.928
924.599	475.603
924.885	474.008
925.172	472.821
925.458	472.108
925.742	471.438
926.028	470.935
926.315	470.606
926.601	470.555
926.885	468.688
927.171	466.831
927.458	465.719
927.744	464.752
928.028	463.94
928.314	463.418
928.6	463.071
928.887	462.903
929.171	462.98
929.457	463.35
929.743	457.702
930.029	456.45
930.313	456.282
930.599	457.099
930.886	458.791
931.172	461.4
931.456	464.528
931.742	467.672
932.028	469.493
932.312	468.67
932.598	468.11
932.884	467.708
933.17	466.953
933.454	466.038
933.74	465.044
934.026	463.883
934.31	462.784
934.596	461.642
934.882	460.538
935.168	459.628
935.452	458.9
935.738	458.731
936.024	459.169
936.308	459.944
936.594	460.391
936.88	460.681
937.164	461.177
937.45	462.344
937.736	463.635
938.02	464.967
938.305	466.345
938.591	466.958
938.875	467.608
939.161	467.329
939.447	466.55
939.731	465.705
940.016	465.21
940.302	464.727
940.586	464.049
940.872	464.196
941.158	464.505
941.442	464.94
941.727	465.359
942.013	465.723
942.297	466.026
942.583	466.284
942.868	466.427
943.152	466.527
943.438	466.589
943.721	466.479
944.007	466.299
944.293	466.117
944.577	465.878
944.862	465.636
945.148	465.314
945.432	464.969
945.717	464.559
946.001	464.006
946.286	463.043
946.572	462.177
946.856	461.342
947.141	460.703
947.425	460.192
947.71	459.342
947.996	458.337
948.28	456.907
948.565	455.289
948.849	453.135
949.134	451.597
949.42	450.629
949.703	450.582
949.989	451.101
950.272	452.009
950.558	453.078
950.841	454.361
951.127	455.555
951.412	457.127
951.696	458.767
951.981	460.64
952.265	461.625
952.55	460.843
952.833	460.105
953.119	460.364
953.404	460.665
953.688	462.203
953.973	460.986
954.256	459.176
954.542	457.304
954.825	455.642
955.11	454.46
955.394	453.772
955.679	453.431
955.962	453.963
956.248	455.318
956.531	456.855
956.816	458.39
957.102	458.517
957.385	458.611
957.67	458.849
957.953	459.074
958.239	459.219
958.522	459.257
958.807	459.18
959.09	458.138
959.376	457.336
959.659	455.718
959.944	453.946
960.227	451.956
960.512	449.676
960.796	447.693
961.081	446.72
961.364	446.688
961.649	447.263
961.932	450.712
962.217	451.419
962.5	452.226
962.786	453.098
963.069	454.205
963.354	454.924
963.637	454.807
963.92	454.735
964.205	454.353
964.488	454.25
964.773	454.37
965.056	455.213
965.341	456.649
965.624	457.997
965.909	458.123
966.192	455.866
966.477	454.088
966.76	452.492
967.045	451.188
967.328	450.083
967.611	449.158
967.896	448.339
968.179	447.962
968.464	447.92
968.747	447.625
969.032	447.204
969.315	446.232
969.598	445.634
969.882	445.406
970.165	445.225
970.45	445.325
970.733	445.491
971.018	445.798
971.301	446.261
971.584	446.949
971.868	447.981
972.151	449.213
972.436	450.376
972.719	451.564
973.002	450.713
973.286	449.867
973.569	449.707
973.854	450.111
974.137	451.398
974.419	451.842
974.704	451.82
974.987	451.935
975.27	451.469
975.554	450.87
975.837	450.457
976.122	450.187
976.404	450.038
976.687	450.496
976.972	451.263
977.254	452.355
977.537	453.494
977.822	453.486
978.104	451.774
978.389	450.181
978.672	448.795
978.954	447.592
979.239	446.561
979.521	445.803
979.804	445.347
980.088	445.311
980.371	445.364
980.654	445.539
980.938	445.599
981.221	444.095
981.503	442.681
981.788	441.573
982.07	441.398
982.353	441.546
982.637	442.119
982.92	442.832
983.202	444.413
983.487	446.107
983.769	447.862
984.052	449.308
984.336	450.252
984.618	450.984
984.901	451.437
985.183	451.641
985.468	450.968
985.75	449.609
986.032	448.092
986.317	446.74
986.599	445.592
986.881	443.774
987.166	442.09
987.448	440.592
987.73	439.638
988.013	439.412
988.297	439.864
988.579	440.847
988.862	442.217
989.144	443.111
989.428	443.402
989.711	443.491
989.993	443.816
990.277	444.99
990.559	446.651
990.841	448.414
991.124	447.176
991.408	444.243
991.69	441.517
991.972	439.775
992.255	438.833
992.539	438.659
992.821	439.141
993.103	440.013
993.385	441.125
993.669	442.924
993.951	444.56
994.234	443.835
994.516	443.351
994.798	443.668
995.082	444.364
995.364	445.096
995.646	445.495
995.928	445.818
996.212	446.112
996.494	446.36
996.776	446.58
997.058	446.817
997.34	447.113
997.624	447.06
997.906	446.983
998.188	446.789
998.47	446.593
998.752	446.463
999.036	446.63
999.318	446.897
999.6	447.158
999.882	447.568
1000.16	447.771
1000.45	447.835
1000.73	447.829
1001.01	447.57
1001.29	447.004
1001.58	446.31
1001.86	445.394
1002.14	444.227
1002.42	442.848
1002.71	441.332
1002.99	439.49
1003.27	437.723
1003.55	436.01
1003.83	435.219
1004.12	435.268
1004.4	435.77
1004.68	436.506
1004.96	437.951
1005.24	439.553
1005.53	441.158
1005.81	442.838
1006.09	444.453
1006.37	445.749
1006.65	446.921
1006.94	447.884
1007.22	448.469
1007.5	448.653
1007.78	448.11
1008.06	447.224
1008.35	446.572
1008.63	446.067
1008.91	446.043
1009.19	446.036
1009.47	445.751
1009.75	445.467
1010.04	444.776
1010.32	444.259
1010.6	444.012
1010.88	443.781
1011.16	443.521
1011.45	443.203
1011.73	442.904
1012.01	442.483
1012.29	441.087
1012.57	439.723
1012.85	438.399
1013.14	437.133
1013.42	436.037
1013.7	435.522
1013.98	435.281
1014.26	435.384
1014.55	435.785
1014.83	436.43
1015.11	437.212
1015.39	438.246
1015.67	439.263
1015.95	440.338
1016.23	440.893
1016.52	441.272
1016.8	440.754
1017.08	439.695
1017.36	438.76
1017.64	439.247
1017.92	440.82
1018.2	440.806
1018.49	439.788
1018.77	439.011
1019.05	439.031
1019.33	439.393
1019.61	439.279
1019.89	429.463
1020.18	423.532
1020.46	425.366
1020.74	430.838
1021.02	436.486
1021.3	441.549
1021.58	446.043
1021.86	448.564
1022.14	450.3
1022.43	451.186
1022.71	451.004
1022.99	450.713
1023.27	450.187
1023.55	449.456
1023.83	448.684
1024.11	447.885
1024.39	446.556
1024.68	445.134
1024.96	443.745
1025.24	442.479
1025.52	441.316
1025.8	440.486
1026.08	439.679
1026.36	438.99
1026.64	438.419
1026.92	437.89
1027.2	437.349
1027.48	437.047
1027.77	436.758
1028.05	436.485
1028.33	436.054
1028.61	434.014
1028.89	432.187
