#Acq. time (s)=	15
#Accumulations=	2
#Range (cm-¹)=	100...4000
#Windows=	1
#Auto scanning=	Off
#Autofocus=	Off
#Macrospot=	Off
#AutoExposure=	Off
#Spike filter=	Multiple accum.
#Delay time (s)=	1
#Binning=	1
#Readout mode=	Signal
#DeNoise=	Standard
#ICS correction=	On
#Dark correction=	Off
#Inst. Process=	Off
#Detector Gain=	Best Dynamic
#Detector ADC=	50 kHz HS
#Detector temperature (°C)=	-60.09
#Instrument=	LabRAM HR Evol
#Detector=	SIN-EM FIVIS
#Objective=	x100_VIS
#Grating=	150 (500nm)
#ND Filter=	25%
#Laser=	633nm_Edge
#Hole=	100.021
#Temperature=	0
#Range=	Visible
#StageXY=	75x50mm Scan+
#StageZ=	Z motor
#X (µm)=	0
#Y (µm)=	0
#Z (µm)=	-13.8
#Full time(s)=	33
#Project=	20_10_20
#Sample=	BU19w
#Site=	
#Title=	BU19w-Area6-ore2_150 (500nm)_633nm_Edge_25%_x100_VIS_H100um_15sX2
#Remark=	
#Date=	20.10.2020 17:33
#Acquired=	20.10.2020 17:33:45
100.676	1035.21
103.935	1048.43
107.192	1062.51
110.449	1064.38
113.703	1066.84
116.957	1061.82
120.208	1052.72
123.459	1040.15
126.708	1050.14
129.957	1045.15
133.203	1066.07
136.449	1056.22
139.692	1026.8
142.935	970.09
146.176	927.552
149.416	885.026
152.654	856.363
155.892	832.359
159.127	810.278
162.363	801.968
165.595	802.861
168.826	809.302
172.058	817.942
175.286	830.305
178.515	845.06
181.74	858.938
184.966	872.861
188.19	884.999
191.411	897.624
194.633	909.266
197.852	920.968
201.072	930.997
204.288	941.561
207.503	952.107
210.719	958.942
213.931	971.106
217.142	982.14
220.354	994.499
223.562	1005.92
226.77	1017.41
229.977	1033.33
233.181	1043.91
236.386	1053.67
239.588	1054.76
242.789	1056.81
245.988	1053.73
249.188	1047.71
252.384	1028.66
255.58	1016.23
258.775	1001.76
261.968	987.082
265.159	978.697
268.351	966.508
271.54	956.148
274.727	945.044
277.913	936.04
281.1	926.396
284.283	918.942
287.466	916.756
290.648	917.706
293.828	921.541
297.006	917.025
300.183	912.016
303.359	907.092
306.535	903.26
309.708	897.346
312.88	891.229
316.05	881.397
319.221	877.218
322.389	873.097
325.556	874.759
328.721	879.841
331.885	882.417
335.049	885.121
338.211	887.612
341.371	893.89
344.53	897.489
347.688	900.677
350.844	904.861
354	908.55
357.154	914.197
360.307	918.026
363.458	919.42
366.608	927.664
369.756	939.85
372.903	953.679
376.051	975.77
379.196	998.117
382.339	1028.51
385.481	1059.78
388.622	1098.03
391.762	1127.46
394.9	1176.41
398.037	1229.26
401.173	1284.57
404.308	1334.23
407.442	1391.02
410.574	1447.33
413.705	1501.39
416.834	1549.32
419.962	1594.88
423.089	1638.33
426.215	1639.03
429.339	1646.84
432.462	1628.69
435.584	1609.22
438.705	1580.03
441.824	1534.95
444.942	1483.91
448.059	1430.67
451.174	1375.64
454.288	1322.39
457.401	1276.6
460.513	1227.43
463.623	1189.43
466.732	1149.6
469.84	1116.43
472.947	1083.32
476.052	1058.85
479.156	1037.31
482.259	1019.32
485.361	1001.58
488.461	985.371
491.56	970.371
494.658	957.509
497.755	945.134
500.848	934.951
503.942	926.511
507.035	918.812
510.127	910.876
513.217	903.892
516.306	898.674
519.394	896.186
522.481	895.723
525.566	896.846
528.65	900.096
531.731	906.517
534.813	915.673
537.893	928.039
540.972	943.155
544.05	962.164
547.127	984.736
550.202	1010.18
553.275	1039.93
556.348	1073.87
559.42	1110.14
562.49	1150.98
565.559	1195.76
568.626	1245.7
571.693	1298.05
574.758	1356.93
577.822	1419.27
580.885	1488.79
583.946	1562.24
587.006	1639.61
590.065	1724.71
593.124	1814.29
596.18	1907.46
599.235	2004.45
602.289	2102.67
605.342	2199.87
608.394	2293.27
611.444	2331.47
614.493	2355.82
617.541	2367.2
620.588	2314.34
623.633	2225.07
626.677	2116.27
629.721	1985.02
632.762	1875.7
635.803	1777.96
638.842	1693.12
641.879	1613.29
644.917	1537.71
647.953	1473.66
650.988	1414.14
654.02	1356.53
657.052	1304
660.083	1245.63
663.112	1192.89
666.141	1148.81
669.167	1107.6
672.193	1071.13
675.219	1037.99
678.241	1006.92
681.264	978.061
684.285	951.39
687.304	926.424
690.324	901.885
693.34	875.861
696.357	851.245
699.372	827.579
702.385	805.241
705.398	783.911
708.409	764.077
711.419	743.881
714.428	725.406
717.436	707.676
720.443	691.393
723.448	675.897
726.452	662.551
729.454	651.66
732.457	641.526
735.456	632.787
738.456	625.38
741.454	619.643
744.451	614.148
747.446	609.111
750.441	604.263
753.434	600.288
756.427	597.394
759.417	595.575
762.407	593.439
765.395	592.596
768.383	592.418
771.368	592.409
774.354	593.103
777.337	593.976
780.32	594.925
783.301	596.512
786.282	599.813
789.26	602.977
792.237	606.402
795.215	610.246
798.19	613.572
801.165	617.091
804.137	620.426
807.108	624.346
810.08	626.999
813.049	630.029
816.018	631.882
818.984	632.731
821.95	632.688
824.915	632.514
827.878	629.515
830.84	624.553
833.802	617.643
836.762	607.965
839.721	596.773
842.679	589.92
845.635	571.419
848.591	550.125
851.544	526.804
854.497	501.727
857.448	475.243
860.4	447.989
863.349	421.032
866.297	396.545
869.245	380.066
872.19	363.338
875.135	348.944
878.079	335.458
881.021	323.999
883.962	314.026
886.902	306.265
889.842	299.14
892.779	293.716
895.715	288.407
898.65	283.959
901.586	280.066
904.518	276.782
907.45	272.756
910.38	269.029
913.31	265.666
916.239	262.085
919.166	258.741
922.092	255.03
925.017	252.144
927.94	249.727
930.864	247.639
933.785	246.239
936.706	245.055
939.625	244.349
942.542	243.807
945.459	243.405
948.376	242.562
951.29	242.127
954.203	241.416
957.116	240.418
960.027	239.854
962.936	239.543
965.845	239.457
968.753	239.755
971.66	240.202
974.566	240.459
977.47	240.829
980.373	239.954
983.274	238.724
986.175	237.077
989.075	235.385
991.973	232.964
994.87	229.983
997.767	227.37
1000.66	223.872
1003.56	220.184
1006.45	216.644
1009.34	213.979
1012.23	212.172
1015.12	209.694
1018.01	207.81
1020.9	206.679
1023.78	205.662
1026.67	204.46
1029.55	203.279
1032.43	202.53
1035.31	201.778
1038.19	200.782
1041.07	199.488
1043.95	198.421
1046.83	196.875
1049.7	195.695
1052.58	194.574
1055.45	193.408
1058.33	191.528
1061.2	190.035
1064.07	188.946
1066.94	187.799
1069.8	187.018
1072.67	186.172
1075.54	185.728
1078.4	186.053
1081.26	187.03
1084.13	187.538
1086.99	188.241
1089.85	188.78
1092.71	189.492
1095.57	189.956
1098.42	190.457
1101.28	190.613
1104.13	190.737
1106.98	190.759
1109.84	190.29
1112.69	189.583
1115.54	188.841
1118.39	188.662
1121.23	188.391
1124.08	188.135
1126.93	188.498
1129.77	188.74
1132.62	189.109
1135.46	189.509
1138.3	189.468
1141.14	189.33
1143.98	188.496
1146.82	187.732
1149.65	187.233
1152.49	186.742
1155.32	186.082
1158.16	185.207
1160.99	184.632
1163.82	183.49
1166.65	182.631
1169.48	181.946
1172.31	181.811
1175.13	181.462
1177.96	180.991
1180.78	181.006
1183.61	181.032
1186.43	180.579
1189.25	179.931
1192.07	179.518
1194.89	179.622
1197.71	179.662
1200.53	179.416
1203.34	179.194
1206.16	178.976
1208.97	178.771
1211.78	178.519
1214.59	178.213
1217.4	177.773
1220.21	177.717
1223.02	177.478
1225.83	177.27
1228.63	177.418
1231.44	177.296
1234.24	177.249
1237.05	177.648
1239.85	177.676
1242.65	177.422
1245.45	177.456
1248.25	178.364
1251.04	180.372
1253.84	183.819
1256.63	183.85
1259.43	183.301
1262.22	183.425
1265.01	183.867
1267.8	183.75
1270.59	182.031
1273.38	180.097
1276.17	179.809
1278.96	180.641
1281.74	180.735
1284.53	180.93
1287.31	180.975
1290.09	180.922
1292.87	181.074
1295.65	181.302
1298.43	181.337
1301.21	181.714
1303.99	181.462
1306.76	181.224
1309.54	180.766
1312.31	180.406
1315.08	180.168
1317.85	179.763
1320.63	179.462
1323.4	178.04
1326.16	177.923
1328.93	178.157
1331.7	178.889
1334.46	179.086
1337.23	178.933
1339.99	178.714
1342.75	178.366
1345.51	178.306
1348.27	178.23
1351.03	177.592
1353.79	176.514
1356.55	175.72
1359.3	175.441
1362.05	174.648
1364.81	173.542
1367.56	172.422
1370.31	171.38
1373.06	170.455
1375.81	169.418
1378.56	168.416
1381.31	167.704
1384.05	166.87
1386.8	166.103
1389.54	165.275
1392.29	164.524
1395.03	164.425
1397.77	164.674
1400.51	165.001
1403.25	165.425
1405.98	165.88
1408.72	166.072
1411.46	166.221
1414.19	166.469
1416.92	166.972
1419.66	167.339
1422.39	167.846
1425.12	168.436
1427.85	168.518
1430.58	168.563
1433.3	168.469
1436.03	168.205
1438.75	167.98
1441.48	167.643
1444.2	167.057
1446.92	167.062
1449.64	166.996
1452.36	167.209
1455.08	167.26
1457.8	167.278
1460.52	166.912
1463.23	166.452
1465.95	166.687
1468.66	167.085
1471.37	167.542
1474.09	168.562
1476.8	169.201
1479.51	169.308
1482.21	169.415
1484.92	169.361
1487.63	168.736
1490.33	169.009
1493.04	169.17
1495.74	169.014
1498.44	168.649
1501.14	168.133
1503.85	167.567
1506.54	167.44
1509.24	167.308
1511.94	167.206
1514.64	167.044
1517.33	167.061
1520.03	167.277
1522.72	167.518
1525.41	167.374
1528.1	167.28
1530.79	167.148
1533.48	167.292
1536.17	167.47
1538.86	167.67
1541.54	167.589
1544.23	167.253
1546.91	166.411
1549.59	165.499
1552.28	164.71
1554.96	164.216
1557.64	163.694
1560.32	162.928
1562.99	161.647
1565.67	160.528
1568.35	159.452
1571.02	159.053
1573.69	158.689
1576.37	158.722
1579.04	159.376
1581.71	160.083
1584.38	161.241
1587.05	161.801
1589.72	162.554
1592.38	162.833
1595.05	162.883
1597.71	162.873
1600.38	162.358
1603.04	161.658
1605.7	161.201
1608.36	160.379
1611.02	159.37
1613.68	158.352
1616.34	157.275
1618.99	156.343
1621.65	155.083
1624.3	153.971
1626.96	153.117
1629.61	152.41
1632.26	152.069
1634.91	149.41
1637.56	149.315
1640.21	149.528
1642.86	150.225
1645.51	150.99
1648.15	151.407
1650.8	151.912
1653.44	152.095
1656.08	152.601
1658.72	152.63
1661.36	152.178
1664	151.153
1666.64	150.265
1669.28	149.004
1671.92	147.762
1674.55	146.67
1677.19	145.096
1679.82	143.242
1682.45	141.703
1685.09	140.285
1687.72	138.876
1690.35	137.984
1692.98	136.842
1695.6	136.028
1698.23	134.92
1700.86	133.962
1703.48	133.495
1706.1	132.997
1708.73	132.063
1711.35	130.864
1713.97	129.684
1716.59	128.806
1719.21	127.658
1721.83	125.997
1724.44	124.623
1727.06	123.702
1729.67	123.23
1732.29	123.02
1734.9	123.41
1737.51	124.111
1740.12	124.518
1742.74	125.089
1745.34	125.463
1747.95	125.755
1750.56	125.828
1753.17	125.673
1755.77	125.597
1758.38	125.711
1760.98	125.439
1763.58	125.184
1766.18	125.05
1768.78	124.972
1771.38	124.594
1773.98	124.209
1776.58	123.948
1779.18	124.078
1781.77	124.166
1784.37	124.122
1786.96	123.84
1789.55	123.586
1792.14	122.982
1794.73	122.576
1797.32	122.22
1799.91	122.325
1802.5	122.232
1805.09	121.989
1807.67	122.124
1810.26	122.099
1812.84	121.999
1815.43	121.734
1818.01	121.395
1820.59	121.116
1823.17	120.881
1825.75	120.998
1828.33	121.136
1830.9	121.512
1833.48	121.528
1836.05	121.48
1838.63	121.453
1841.2	121.427
1843.77	121.291
1846.35	121.481
1848.92	121.695
1851.49	122.171
1854.06	122.316
1856.62	122.566
1859.19	122.262
1861.75	122.026
1864.32	121.604
1866.88	121.315
1869.45	121.018
1872.01	120.712
1874.57	120.443
1877.13	120.43
1879.69	120.111
1882.25	119.645
1884.8	119.116
1887.36	118.511
1889.92	118.166
1892.47	118.115
1895.02	118.083
1897.58	118.603
1900.13	119.133
1902.68	119.922
1905.23	120.54
1907.78	121.362
1910.33	121.73
1912.87	122.601
1915.42	122.956
1917.96	123.793
1920.51	123.897
1923.05	123.729
1925.59	123.279
1928.13	122.389
1930.67	121.188
1933.21	120.333
1935.75	119.812
1938.29	119.536
1940.82	119.511
1943.36	119.84
1945.9	120.03
1948.43	120.713
1950.96	121.151
1953.49	121.481
1956.02	121.926
1958.55	122.392
1961.08	122.835
1963.61	122.615
1966.14	121.419
1968.66	120.921
1971.19	120.114
1973.71	119.796
1976.24	118.711
1978.76	117.88
1981.28	117.582
1983.8	117.222
1986.32	117.04
1988.84	117.055
1991.36	117.257
1993.88	117.261
1996.39	117.432
1998.91	117.683
2001.42	117.695
2003.94	117.797
2006.45	118.057
2008.96	118.457
2011.47	114.822
2013.98	115.112
2016.49	115.895
2019	117.567
2021.5	118.964
2024.01	120.541
2026.51	121.481
2029.02	122.083
2031.52	122.167
2034.02	121.95
2036.52	121.48
2039.02	120.645
2041.52	119.304
2044.02	117.446
2046.52	116.901
2049.02	116.737
2051.51	116.204
2054.01	116.405
2056.5	116.433
2058.99	116.908
2061.49	117.029
2063.98	118.057
2066.47	119.848
2068.96	120.385
2071.45	121.482
2073.93	122.09
2076.42	123.462
2078.91	123.707
2081.39	123.846
2083.88	123.655
2086.36	123.139
2088.84	121.149
2091.32	118.595
2093.8	114.374
2096.28	116.664
2098.76	116.435
2101.24	116.521
2103.72	116.336
2106.19	115.877
2108.67	115.684
2111.14	116.13
2113.61	116.361
2116.09	116.506
2118.56	116.769
2121.03	116.634
2123.5	116.151
2125.97	116.007
2128.43	115.635
2130.9	115.178
2133.37	114.784
2135.83	114.298
2138.3	114.211
2140.76	114.217
2143.22	114.624
2145.68	115.128
2148.14	115.217
2150.6	115.604
2153.06	115.506
2155.52	116.06
2157.98	116.851
2160.43	117.738
2162.89	118.648
2165.34	119.811
2167.8	119.776
2170.25	119.402
2172.7	118.715
2175.15	117.685
2177.6	115.497
2180.05	113.491
2182.5	112.443
2184.95	111.445
2187.39	111.581
2189.84	113.509
2192.28	113.812
2194.73	113.984
2197.17	114.131
2199.61	114.578
2202.05	114.799
2204.49	114.933
2206.93	115.036
2209.37	114.918
2211.81	114.865
2214.24	114.776
2216.68	114.511
2219.11	114.18
2221.55	114.212
2223.98	114.368
2226.41	114.857
2228.84	115.148
2231.27	115.529
2233.7	115.568
2236.13	115.493
2238.56	115.078
2240.99	114.903
2243.41	114.489
2245.84	114.034
2248.26	113.705
2250.69	112.559
2253.11	111.456
2255.53	110.539
2257.95	109.363
2260.37	108.173
2262.79	107.398
2265.21	106.991
2267.63	107.417
2270.04	108.164
2272.46	108.634
2274.87	109.299
2277.29	109.893
2279.7	110.945
2282.11	111.469
2284.52	112.002
2286.93	112.38
2289.34	112.664
2291.75	112.238
2294.16	111.196
2296.57	110.701
2298.97	110.361
2301.38	110.02
2303.78	109.602
2306.19	109.219
2308.59	108.861
2310.99	108.666
2313.39	108.447
2315.79	107.929
2318.19	107.898
2320.59	108.39
2322.99	109.052
2325.38	109.439
2327.78	109.732
2330.17	109.984
2332.57	110.494
2334.96	110.758
2337.35	111.448
2339.74	111.692
2342.13	111.981
2344.52	112.01
2346.91	111.629
2349.3	111.014
2351.69	109.844
2354.07	108.685
2356.46	108.026
2358.84	107.264
2361.23	106.712
2363.61	106.405
2365.99	106.439
2368.37	106.365
2370.75	106.344
2373.13	106.384
2375.51	106.892
2377.89	107.424
2380.27	108.325
2382.64	108.874
2385.02	109.525
2387.39	109.971
2389.77	110.104
2392.14	109.603
2394.51	109.435
2396.88	109.38
2399.25	109.101
2401.62	108.752
2403.99	108.368
2406.36	107.903
2408.72	107.519
2411.09	106.999
2413.46	106.745
2415.82	106.547
2418.18	107.101
2420.55	107.254
2422.91	107.437
2425.27	107.67
2427.63	107.131
2429.99	105.574
2432.35	105.878
2434.7	106.47
2437.06	107.319
2439.42	107.927
2441.77	111.015
2444.12	111.701
2446.48	111.74
2448.83	111.563
2451.18	110.728
2453.53	109.651
2455.88	108.111
2458.23	107.03
2460.58	106.14
2462.93	105.476
2465.27	104.377
2467.62	102.814
2469.97	101.846
2472.31	101.251
2474.65	101.292
2476.99	101.735
2479.34	102.567
2481.68	102.882
2484.02	103.442
2486.36	104.431
2488.69	105.359
2491.03	105.796
2493.37	106.491
2495.7	106.897
2498.04	107.244
2500.37	107.415
2502.71	107.572
2505.04	107.072
2507.37	106.556
2509.7	105.527
2512.03	104.503
2514.36	103.405
2516.69	102.571
2519.02	102.248
2521.34	102.42
2523.67	102.339
2526	102.358
2528.32	102.152
2530.64	102.32
2532.97	102.658
2535.29	102.955
2537.61	102.991
2539.93	103.195
2542.25	103.438
2544.57	103.789
2546.88	104.269
2549.2	104.36
2551.52	103.905
2553.83	103.35
2556.15	102.895
2558.46	102.732
2560.77	103.048
2563.09	103.272
2565.4	103.669
2567.71	104.061
2570.02	103.613
2572.33	103.778
2574.63	104.091
2576.94	104.44
2579.25	104.625
2581.55	104.61
2583.86	104.389
2586.16	104.573
2588.46	104.472
2590.77	104.181
2593.07	103.873
2595.37	103.594
2597.67	103.379
2599.97	103.241
2602.27	103.206
2604.56	102.329
2606.86	101.896
2609.16	102.085
2611.45	102.041
2613.74	102.43
2616.04	102.52
2618.33	102.958
2620.62	103.101
2622.91	103.44
2625.2	103.185
2627.49	102.682
2629.78	102.139
2632.07	101.288
2634.36	100.567
2636.64	100.032
2638.93	99.604
2641.21	99.1644
2643.5	98.6856
2645.78	98.5262
2648.06	98.3863
2650.34	98.9103
2652.62	100.06
2654.9	101.176
2657.18	102.018
2659.46	102.74
2661.74	103.339
2664.01	103.716
2666.29	103.522
2668.56	103.417
2670.84	103.463
2673.11	103.18
2675.38	102.773
2677.66	102.304
2679.93	101.682
2682.2	101.167
2684.47	100.489
2686.74	100.375
2689	100.258
2691.27	100.62
2693.54	100.385
2695.8	100.383
2698.07	100.067
2700.33	99.3171
2702.59	99.2894
2704.86	97.926
2707.12	98.0423
2709.38	98.5851
2711.64	99.3973
2713.9	100.412
2716.16	100.611
2718.41	100.714
2720.67	101.302
2722.93	101.911
2725.18	102.705
2727.44	103.473
2729.69	104.207
2731.94	104.87
2734.19	104.302
2736.45	103.204
2738.7	101.671
2740.95	100.431
2743.19	98.9971
2745.44	98.333
2747.69	98.7152
2749.94	98.4503
2752.18	98.534
2754.43	99.1986
2756.67	99.468
2758.92	98.931
2761.16	98.8284
2763.4	98.4384
2765.64	98.0947
2767.88	97.4034
2770.12	97.0308
2772.36	97.0514
2774.6	97.0462
2776.83	97.1134
2779.07	97.4491
2781.31	98.103
2783.54	98.7114
2785.78	99.5078
2788.01	100.164
2790.24	101.067
2792.47	101.376
2794.71	101.666
2796.94	102.023
2799.17	102.576
2801.39	102.573
2803.62	102.635
2805.85	102.719
2808.08	102.354
2810.3	101.582
2812.53	100.602
2814.75	99.5878
2816.97	98.902
2819.2	98.2846
2821.42	97.5742
2823.64	96.8274
2825.86	96.4698
2828.08	95.8369
2830.3	95.4608
2832.52	94.9584
2834.73	94.5728
2836.95	94.5611
2839.16	95.1004
2841.38	95.4549
2843.59	96.0914
2845.81	96.5952
2848.02	97.4208
2850.23	98.5406
2852.44	99.5322
2854.65	99.9791
2856.86	100.286
2859.07	100.197
2861.28	99.9713
2863.49	99.4754
2865.69	98.8294
2867.9	98.0889
2870.1	97.309
2872.31	96.357
2874.51	95.9363
2876.71	95.6271
2878.92	95.382
2881.12	95.159
2883.32	94.8955
2885.52	94.672
2887.72	94.6942
2889.91	95.1055
2892.11	95.5272
2894.31	96.0878
2896.5	96.4758
2898.7	96.9862
2900.89	97.2945
2903.09	97.5803
2905.28	98.3134
2907.47	99.0536
2909.66	99.2055
2911.86	98.5199
2914.04	97.9526
2916.23	97.586
2918.42	97.3212
2920.61	97.1149
2922.8	96.7763
2924.98	96.5535
2927.17	96.5705
2929.35	96.8389
2931.54	97.0561
2933.72	97.7086
2935.9	98.5319
2938.08	99.3397
2940.26	99.9687
2942.45	100.636
2944.62	100.795
2946.8	100.859
2948.98	100.637
2951.16	100.47
2953.33	100.086
2955.51	99.3777
2957.69	98.7948
2959.86	98.0703
2962.03	97.2113
2964.21	96.1292
2966.38	95.816
2968.55	95.6318
2970.72	95.773
2972.89	96.3937
2975.06	96.6163
2977.23	96.7174
2979.39	97.4477
2981.56	97.7643
2983.73	97.8972
2985.89	97.8488
2988.06	97.224
2990.22	96.8822
2992.38	96.9802
2994.55	96.9871
2996.71	97.1677
2998.87	97.0678
3001.03	96.864
3003.19	96.4592
3005.35	95.9879
3007.5	95.5113
3009.66	95.1866
3011.82	94.7361
3013.97	95.08
3016.13	95.1761
3018.28	95.2235
3020.44	94.9187
3022.59	94.9182
3024.74	94.888
3026.89	94.7101
3029.04	94.5424
3031.19	94.8251
3033.34	95.6776
3035.49	97.0473
3037.64	95.8834
3039.78	97.6035
3041.93	97.9231
3044.08	94.9932
3046.22	94.3839
3048.37	96.8185
3050.51	98.4625
3052.65	99.637
3054.79	101.558
3056.93	101.935
3059.07	169.596
3061.21	226.736
3063.35	340.42
3065.49	377.604
3067.63	383.763
3069.76	174.853
3071.9	107.158
3074.04	99.7173
3076.17	98.3221
3078.31	99.715
3080.44	96.3668
3082.57	94.2224
3084.7	93.4605
3086.83	94.2042
3088.96	95.0452
3091.09	95.9705
3093.22	96.4792
3095.35	93.9896
3097.48	94.0296
3099.6	93.7244
3101.73	93.4588
3103.85	93.208
3105.98	93.1718
3108.1	93.2303
3110.23	92.9969
3112.35	92.6895
3114.47	91.6394
3116.59	91.1479
3118.71	90.7968
3120.83	90.4015
3122.95	90.888
3125.07	91.9647
3127.19	93.4016
3129.3	93.8554
3131.42	94.3961
3133.53	94.6364
3135.65	95.2596
3137.76	94.673
3139.87	94.2397
3141.99	93.4417
3144.1	92.631
3146.21	91.8552
3148.32	91.6672
3150.43	91.4592
3152.54	91.1585
3154.64	91.3956
3156.75	92.6386
3158.86	92.6841
3160.96	92.8703
3163.07	93.0874
3165.17	93.4574
3167.28	94.2608
3169.38	94.1725
3171.48	91.7579
3173.58	92.0607
3175.69	92.6658
3177.79	93.551
3179.89	94.6451
3181.98	95.7651
3184.08	97.0322
3186.18	97.7378
3188.28	97.5204
3190.37	97.296
3192.47	97.0749
3194.56	96.8846
3196.66	96.6826
3198.75	96.564
3200.84	96.4224
3202.93	96.0162
3205.03	95.3171
3207.12	94.8661
3209.21	94.1719
3211.29	93.4973
3213.38	92.8195
3215.47	92.5085
3217.56	92.28
3219.64	92.3339
3221.73	92.3559
3223.81	92.3331
3225.9	92.4487
3227.98	93.1967
3230.06	94.0673
3232.15	94.6469
3234.23	95.0996
3236.31	95.1171
3238.39	94.5257
3240.47	94.055
3242.55	93.5786
3244.62	93.345
3246.7	93.1414
3248.78	93.1106
3250.85	93.2712
3252.93	93.4539
3255	93.8402
3257.08	94.2929
3259.15	94.748
3261.22	94.5272
3263.29	94.5149
3265.36	94.4036
3267.43	94.135
3269.5	94.0084
3271.57	92.9387
3273.64	93.1598
3275.71	93.525
3277.78	94.5732
3279.84	95.3333
3281.91	97.6443
3283.97	98.7018
3286.03	97.8125
3288.1	96.8369
3290.16	95.2915
3292.22	94.0401
3294.28	92.903
3296.34	92.0974
3298.4	92.3932
3300.46	90.6666
3302.52	90.0423
3304.58	90.1911
3306.64	91.2318
3308.69	92.0307
3310.75	92.5776
3312.8	93.2221
3314.86	93.3938
3316.91	94.1568
3318.97	95.1594
3321.02	96.4051
3323.07	96.2437
3325.12	94.9026
3327.17	94.4044
3329.22	94.0713
3331.27	93.8635
3333.32	93.6449
3335.37	93.4632
3337.41	93.2441
3339.46	93.0876
3341.5	92.928
3343.55	92.806
3345.59	92.7016
3347.64	92.0815
3349.68	91.1423
3351.72	90.2934
3353.76	89.4567
3355.8	89.3502
3357.84	89.8
3359.88	90.6525
3361.92	91.5721
3363.96	92.4276
3366	93.0329
3368.03	93.303
3370.07	93.5393
3372.1	93.9237
3374.14	93.7323
3376.17	92.6462
3378.21	91.7048
3380.24	91.0555
3382.27	90.5719
3384.3	90.1883
3386.33	90.0159
3388.36	89.7911
3390.39	90.1294
3392.42	90.5201
3394.45	91.0752
3396.48	91.6646
3398.5	92.2913
3400.53	92.7289
3402.56	91.9409
3404.58	91.6395
3406.6	91.6326
3408.63	91.7094
3410.65	91.5463
3412.67	91.4279
3414.69	91.2088
3416.71	91.1482
3418.73	91.3478
3420.75	91.8049
3422.77	92.559
3424.79	93.6489
3426.81	94.4803
3428.82	94.3008
3430.84	93.8974
3432.86	93.6033
3434.87	93.315
3436.88	93.4715
3438.9	93.3094
3440.91	93.0483
3442.92	92.7568
3444.93	92.3924
3446.94	91.8393
3448.95	91.4833
3450.96	91.143
3452.97	90.7623
3454.98	90.426
3456.99	90.6245
3458.99	90.4872
3461	90.5008
3463.01	90.4424
3465.01	90.2999
3467.01	90.0449
3469.02	90.1227
3471.02	90.8431
3473.02	92.0768
3475.02	92.9332
3477.02	93.9165
3479.02	94.1496
3481.02	93.921
3483.02	92.3395
3485.02	92.3175
3487.02	92.1311
3489.02	91.8577
3491.01	91.9611
3493.01	91.799
3495	91.6889
3497	91.4184
3498.99	91.1747
3500.98	91.2009
3502.97	91.032
3504.97	91.2861
3506.96	91.3452
3508.95	91.6397
3510.94	91.924
3512.93	92.4787
3514.91	92.0457
3516.9	91.108
3518.89	90.2775
3520.88	89.7187
3522.86	88.9548
3524.85	88.4245
3526.83	88.4486
3528.81	89.017
3530.8	89.8336
3532.78	90.8075
3534.76	91.6746
3536.74	92.6193
3538.72	93.4718
3540.7	94.1835
3542.68	93.3366
3544.66	93.0472
3546.64	92.8487
3548.62	92.6096
3550.59	92.0166
3552.57	91.2994
3554.55	90.7892
3556.52	90.5349
3558.49	90.3718
3560.47	90.5781
3562.44	90.6853
3564.41	91.3829
3566.38	91.7085
3568.35	91.9016
3570.32	91.9182
3572.29	91.6779
3574.26	91.475
3576.23	91.2498
3578.2	90.8837
3580.17	90.9416
3582.13	90.8306
3584.1	90.347
3586.06	89.6713
3588.03	89.0987
3589.99	88.6054
3591.96	88.22
3593.92	88.445
3595.88	88.5836
3597.84	88.9099
3599.8	89.5686
3601.76	90.698
3603.72	91.1836
3605.68	91.244
3607.64	91.3989
3609.6	91.2175
3611.55	90.5211
3613.51	89.691
3615.46	88.8591
3617.42	88.2905
3619.37	88.0729
3621.33	88.0301
3623.28	87.7899
3625.23	87.4032
3627.18	87.5178
3629.13	87.5103
3631.09	87.4692
3633.04	87.6143
3634.98	86.6432
3636.93	86.1471
3638.88	84.8708
3640.83	84.3059
3642.77	83.8766
3644.72	83.3711
3646.67	83.5344
3648.61	84.043
3650.56	84.7951
3652.5	85.5168
3654.44	86.6627
3656.38	88.1929
3658.33	90.9736
3660.27	92.0477
3662.21	92.7079
3664.15	92.9974
3666.09	92.8991
3668.02	92.5384
3669.96	91.1167
3671.9	89.3083
3673.84	87.9296
3675.77	85.9486
3677.71	85.1484
3679.64	83.9858
3681.58	83.6682
3683.51	83.549
3685.44	84.7761
3687.38	87.0157
3689.31	88.2333
3691.24	89.5815
3693.17	89.9721
3695.1	90.2154
3697.03	90.3792
3698.96	90.3419
3700.88	90.1947
3702.81	89.296
3704.74	87.9313
3706.66	86.6292
3708.59	85.5007
3710.51	84.5057
3712.44	85.2902
3714.36	84.8412
3716.28	84.3872
3718.21	83.9587
3720.13	82.6839
3722.05	82.3385
3723.97	82.6064
3725.89	82.8649
3727.81	83.2241
3729.73	83.721
3731.65	83.7435
3733.56	83.9001
3735.48	84.2605
3737.4	84.8859
3739.31	85.4601
3741.23	86.4796
3743.14	86.6162
3745.05	86.5828
3746.97	87.1776
3748.88	88.4246
3750.79	89.6521
3752.7	89.3256
3754.61	88.6082
3756.52	88.3923
3758.43	87.7807
3760.34	87.2158
3762.25	86.4171
3764.16	86.0326
3766.06	85.3221
3767.97	84.5688
3769.88	83.6082
3771.78	82.9775
3773.69	82.8736
3775.59	82.8047
3777.49	83.1799
3779.4	83.0166
3781.3	83.0064
3783.2	82.8325
3785.1	82.8463
3787	82.3865
3788.9	82.3637
3790.8	82.5213
3792.7	82.7725
3794.59	82.827
3796.49	82.6852
3798.39	82.9713
3800.28	83.2322
3802.18	82.6947
3804.07	82.1392
3805.97	81.9023
3807.86	81.9394
3809.76	82.027
3811.65	82.1689
3813.54	82.5156
3815.43	82.6954
3817.32	82.9357
3819.21	83.5645
3821.1	83.5056
3822.99	83.2284
3824.88	83.1241
3826.76	83.3169
3828.65	83.8932
3830.54	84.355
3832.42	84.7848
3834.31	85.0981
3836.19	84.9269
3838.08	84.4434
3839.96	83.9054
3841.84	83.607
3843.72	83.2917
3845.61	83.3927
3847.49	83.577
3849.37	83.5722
3851.25	83.4773
3853.13	83.2573
3855	83.0771
3856.88	82.8988
3858.76	82.7116
3860.64	82.5709
3862.51	82.4412
3864.39	82.3229
3866.26	82.1689
3868.14	82.0375
3870.01	81.8976
3871.88	81.7513
3873.76	81.6268
3875.63	80.873
3877.5	79.4685
3879.37	78.872
3881.24	78.3471
3883.11	78.4575
3884.98	78.8788
3886.85	79.5723
3888.72	80.1037
3890.58	81.0073
3892.45	81.0017
3894.31	80.9923
3896.18	81.0721
3898.05	81.1785
3899.91	81.3329
3901.77	81.7875
3903.64	82.6966
3905.5	83.3097
3907.36	83.8187
3909.22	82.8547
3911.08	81.8268
3912.94	80.9217
3914.8	80.1124
3916.66	79.4123
3918.52	78.9718
3920.38	78.7585
3922.23	78.6194
3924.09	78.9033
3925.95	78.5432
3927.8	78.6233
3929.66	78.965
3931.51	79.6242
3933.36	80.1203
3935.22	80.406
3937.07	80.7315
3938.92	81.1475
3940.77	81.5794
3942.62	82.0737
3944.47	82.5653
3946.32	83.0869
3948.17	83.5314
3950.02	83.7455
3951.87	82.9056
3953.72	81.0311
3955.56	80.0561
3957.41	79.208
3959.25	78.6992
3961.1	78.2593
3962.94	78.3179
3964.79	78.6749
3966.63	79.8067
3968.47	80.3284
3970.31	80.8827
3972.16	81.466
3974	81.6133
3975.84	80.4506
3977.68	79.6756
3979.51	79.2724
3981.35	78.9729
3983.19	78.4338
3985.03	78.0627
3986.87	77.971
3988.7	78.2423
3990.54	78.8467
3992.37	79.3419
3994.21	79.5989
3996.04	79.5946
3997.87	79.2358
3999.71	78.3558
