#Acq. time (s)=	60
#Accumulations=	2
#Range (cm-¹)=	100...1030
#Windows=	2
#Auto scanning=	Off
#Autofocus=	Off
#Macrospot=	Off
#AutoExposure=	Off
#Spike filter=	Multiple accum.
#Delay time (s)=	2
#Binning=	1
#Readout mode=	Signal
#DeNoise=	Standard
#ICS correction=	On
#Dark correction=	Off
#Inst. Process=	Off
#Detector Gain=	Best Dynamic
#Detector ADC=	50 kHz EM
#Detector EM gain=	100
#Detector temperature (°C)=	-60.09
#Instrument=	LabRAM HR Evol
#Detector=	SIN-EM FIVIS
#Objective=	x100_VIS
#Grating=	1800 (450-850nm)
#ND Filter=	10%
#Laser=	532nm_Edge
#Hole=	30.0125
#Temperature=	0
#Range=	Visible
#StageXY=	75x50mm Scan+
#StageZ=	Z motor
#X (µm)=	0
#Y (µm)=	0
#Z (µm)=	332.9
#Full time(mm:ss)=	4:12
#Project=	23022021
#Sample=	
#Site=	
#Title=	BU19TS(2)-Ore2-core_1800 (450-850nm)_532nm_Edge_10%_x100_VIS_H30um_60sX2
#Remark=	
#Date=	23.02.2021 10:27
#Acquired=	23.02.2021 10:27:30
100.304	732.15
100.626	729.47
100.948	728.28
101.27	728.554
101.592	730.337
101.914	733.66
102.233	739.008
102.555	744.397
102.877	748.944
103.198	748.749
103.52	748.518
103.84	748.691
104.162	749.066
104.483	740.591
104.805	742.912
105.127	746.662
105.446	751.282
105.768	755.819
106.09	759.742
106.411	760.415
106.733	760.109
107.052	759.189
107.374	757.477
107.696	755.715
108.017	753.757
108.337	752.212
108.658	750.001
108.98	747.895
109.301	745.937
109.623	744.375
109.942	743.585
110.264	743.951
110.585	745.027
110.907	746.839
111.226	749.473
111.548	753.079
111.869	757.873
112.191	758.67
112.51	759.472
112.831	760.477
113.153	762.153
113.474	764.186
113.793	766.144
114.115	767.661
114.436	767.479
114.757	767.294
115.077	767.087
115.398	766.973
115.719	766.741
116.041	766.324
116.36	767.395
116.681	767.93
117.002	765.931
117.322	763.414
117.643	760.729
117.964	757.725
118.285	754.84
118.604	751.863
118.926	749.561
119.247	747.758
119.566	746.288
119.887	745.678
120.208	745.763
120.529	747.072
120.848	750.146
121.17	754.196
121.491	758.111
121.81	761.039
122.131	763.721
122.452	765.789
122.771	767.374
123.092	768.301
123.413	768.451
123.732	768.002
124.053	766.836
124.374	765.251
124.695	763.326
125.014	761.09
125.335	758.793
125.656	756.598
125.975	754.747
126.296	753.298
126.617	752.414
126.936	752.3
127.256	752.705
127.577	753.608
127.896	755.07
128.217	756.63
128.538	758.532
128.857	760.439
129.178	762.288
129.496	763.982
129.817	765.021
130.138	765.772
130.457	765.509
130.777	764.915
131.098	763.787
131.417	763.023
131.738	762.526
132.059	763.328
132.377	765.311
132.698	767.173
133.016	769.743
133.337	777.018
133.658	772.145
133.977	775.402
134.297	778.88
134.618	774.739
134.936	777.609
135.257	780.907
135.576	784.619
135.896	788.596
136.217	792.264
136.535	795.876
136.856	798.779
137.174	801.089
137.495	797.891
137.816	791.83
138.134	787.907
138.455	783.723
138.773	780.718
139.093	774.184
139.414	767.117
139.732	761.313
140.053	757.816
140.371	756.143
140.692	755.165
141.01	754.477
141.331	754.298
141.651	753.591
141.969	752.779
142.29	751.701
142.608	750.073
142.928	748.243
143.247	746.627
143.567	746.889
143.887	745.822
144.206	743.995
144.526	742.283
144.844	740.133
145.164	737.841
145.483	737.645
145.803	739.378
146.121	741.192
146.441	742.035
146.762	743.172
147.08	744.129
147.4	744.954
147.718	744.577
148.038	743.005
148.356	741.692
148.677	740.391
148.995	739.13
149.315	738.011
149.633	737.146
149.953	736.369
150.271	735.885
150.591	735.324
150.909	735.169
151.229	734.789
151.547	732.788
151.867	731.619
152.185	731.539
152.505	728.205
152.823	724.229
153.143	719.994
153.461	715.622
153.781	711.741
154.099	708.244
154.419	705.115
154.737	703.716
155.057	716.391
155.375	714.504
155.695	712.545
156.013	711.237
156.333	709.479
156.65	707.936
156.97	706.156
157.288	704.531
157.608	703.095
157.926	701.97
158.246	700.27
158.563	697.494
158.883	694.977
159.201	692.925
159.521	692.208
159.838	692.486
160.156	693.816
160.476	696.422
160.794	699.596
161.113	701.459
161.431	702.293
161.751	704.781
162.068	708.229
162.388	711.516
162.706	712.651
163.025	712.901
163.343	712.573
163.66	711.615
163.98	710.276
164.298	707.924
164.617	708.455
164.935	710.208
165.254	713.602
165.572	713.141
165.889	712.153
166.209	711.902
166.527	713.416
166.846	715.047
167.164	716.056
167.481	716.073
167.801	714.015
168.118	712.619
168.437	711.345
168.755	710.344
169.074	709.213
169.392	706.507
169.709	704.459
170.029	702.88
170.346	702.051
170.663	707.897
170.983	706.479
171.3	704.594
171.619	702.347
171.937	700.277
172.254	698.499
172.573	697.008
172.89	696.23
173.21	696.07
173.527	696.114
173.844	696.899
174.164	702.801
174.481	705.563
174.798	706.702
175.117	707.824
175.434	707.824
175.752	708.032
176.071	708.199
176.388	708.805
176.707	709.463
177.024	710.381
177.341	711.646
177.661	713.207
177.978	714.495
178.295	715.566
178.614	718.197
178.931	721.727
179.248	722.583
179.567	722.176
179.884	720.591
180.201	720.555
180.52	722.138
180.837	723.7
181.154	725.013
181.473	725.992
181.79	726.949
182.107	728.086
182.426	726.88
182.743	721.231
183.06	717.511
183.379	715.298
183.696	714.964
184.013	717.982
184.33	722.494
184.649	728.165
184.965	733.679
185.282	733.182
185.601	732.034
185.918	731.944
186.235	731.817
186.554	732.039
186.87	732.454
187.187	733.896
187.504	735.967
187.823	739.066
188.14	741.686
188.456	743.478
188.775	733.618
189.092	726.519
189.408	721.805
189.725	719.577
190.044	721.343
190.361	724.935
190.677	729.544
190.994	733.378
191.313	737.788
191.629	741.982
191.946	744.593
192.262	742.152
192.581	739.42
192.898	737.346
193.214	736.845
193.531	737.919
193.849	740.212
194.166	743.168
194.482	746.722
194.799	749.917
195.118	749.164
195.434	746.979
195.75	744.94
196.067	742.597
196.386	740.87
196.702	739.415
197.018	738.696
197.335	739.273
197.653	741.469
197.97	745.379
198.286	747.882
198.602	742.698
198.919	739.367
199.237	737.837
199.554	737.646
199.87	738.701
200.186	740.83
200.503	744.119
200.821	747.273
201.137	751.51
201.454	754.762
201.77	758.33
202.086	761.297
202.404	763.367
202.721	763.354
203.037	763.127
203.353	762.657
203.669	763.061
203.988	763.65
204.304	764.822
204.62	766.283
204.936	767.645
205.252	768.669
205.568	769.534
205.887	770.24
206.203	771.674
206.519	772.829
206.835	773.641
207.151	770.975
207.467	766.784
207.785	762.542
208.101	758.39
208.417	755.69
208.733	753.362
209.049	751.882
209.365	751.615
209.684	751.257
209.999	749.417
210.315	746.266
210.631	744.839
210.947	744.483
211.263	745.008
211.579	746.107
211.895	748.08
212.213	750.209
212.529	752
212.845	751.74
213.161	751.82
213.477	752.816
213.793	754.282
214.108	756.272
214.424	758.585
214.742	760.762
215.058	762.034
215.374	759.571
215.69	757.247
216.005	755.153
216.321	753.633
216.637	752.828
216.953	752.764
217.268	753.493
217.584	754.587
217.902	755.734
218.218	757.97
218.533	760.433
218.849	762.962
219.165	761.443
219.48	758.877
219.796	758.923
220.112	759.89
220.427	761.72
220.743	763.877
221.059	766.399
221.374	769.735
221.692	772.291
222.007	771.312
222.323	770.509
222.639	769.613
222.954	769.06
223.27	768.885
223.585	769.267
223.901	768.798
224.216	767.969
224.532	767.415
224.847	766.909
225.163	767.463
225.478	768.039
225.794	768.637
226.109	769.988
226.424	771.641
226.74	774.297
227.055	773.518
227.371	768.136
227.686	774.667
228.003	778.331
228.319	776.731
228.634	775.455
228.95	774.871
229.265	774.346
229.58	773.964
229.895	773.767
230.211	773.822
230.526	774.11
230.841	732.299
231.157	762.731
231.472	772.394
231.787	776.874
232.102	777.155
232.418	778.992
232.733	778.723
233.048	780.989
233.363	779.954
233.678	779.347
233.994	780.052
234.309	782.864
234.624	784.756
234.939	786.94
235.254	788.486
235.569	789.967
235.884	791.34
236.199	794.094
236.515	796.124
236.827	797.19
237.143	797.549
237.458	797.544
237.773	796.929
238.088	796.036
238.403	794.975
238.718	793.983
239.033	790.67
239.348	789.668
239.663	789.454
239.978	791.277
240.293	793.483
240.608	793.639
240.922	795.754
241.237	798.573
241.552	802.256
241.867	806.75
242.182	811.964
242.497	816.546
242.812	817.496
243.125	817.83
243.439	817.735
243.754	817.049
244.069	815.912
244.384	814.561
244.699	812.637
245.014	810.377
245.328	808.445
245.643	807.194
245.958	806.96
246.273	808.255
246.587	809.886
246.902	810.155
247.215	811.08
247.529	812.66
247.844	814.84
248.159	817.188
248.473	819.627
248.788	830.688
249.103	831.743
249.417	832.362
249.732	830.826
250.045	827.564
250.359	821.508
250.674	813.218
250.988	806.996
251.303	803.845
251.618	804.613
251.932	806.824
252.247	809.227
252.559	813.065
252.874	814.513
253.188	815.059
253.503	816.507
253.817	818.242
254.132	819.794
254.446	820.255
254.761	820.201
255.073	817.667
255.387	815.059
255.702	812.603
256.016	812.879
256.331	814.546
256.645	816.913
256.957	820.3
257.272	823.956
257.586	827.679
257.901	830.938
258.215	834.332
258.529	833.325
258.841	831.52
259.156	829.59
259.47	827.594
259.784	825.719
260.099	823.148
260.413	820.679
260.725	817.623
261.039	816.628
261.354	815.995
261.668	811.059
261.982	806.638
262.294	803.29
262.608	801.75
262.923	801.345
263.237	801.203
263.551	803.89
263.863	806.977
264.177	810.277
264.491	813.466
264.805	816.181
265.119	818.511
265.431	820.525
265.746	822.316
266.06	810.309
266.374	799.148
266.688	797.345
267	798.605
267.314	802.661
267.628	808.637
267.942	808.078
268.254	809.664
268.568	811.256
268.882	814.391
269.196	812.171
269.508	808.563
269.822	808.847
270.135	809.776
270.449	810.99
270.761	812.647
271.075	814.197
271.389	819.402
271.703	818.099
272.015	815.733
272.329	813.245
272.642	811.898
272.956	812.618
273.268	811.816
273.582	811.039
273.896	810.55
274.209	810.128
274.521	808.364
274.835	808.104
275.149	810.338
275.46	810.795
275.774	809.837
276.088	807.884
276.402	806.072
276.713	804.367
277.027	802.89
277.341	802.023
277.652	801.909
277.966	802.774
278.28	804.149
278.593	805.766
278.905	807.628
279.218	809.401
279.532	811.006
279.844	813.153
280.157	815.335
280.471	817.332
280.782	818.992
281.096	820.492
281.409	821.612
281.721	822.16
282.034	821.255
282.348	820.268
282.659	818.848
282.973	817.499
283.286	816.033
283.598	814.811
283.911	815.038
284.225	815.298
284.536	815.69
284.85	815.409
285.163	814.572
285.474	812.669
285.788	813.288
286.101	814.808
286.412	816.822
286.726	818.306
287.039	819.113
287.35	820.047
287.664	821.275
287.977	821.076
288.288	820.001
288.602	819.005
288.915	817.692
289.226	816.524
289.539	815.81
289.851	815.662
290.164	816.255
290.477	817.965
290.788	819.213
291.102	820.175
291.413	821.339
291.726	820.563
292.039	819.748
292.35	819.687
292.663	819.659
292.977	819.627
293.288	819.509
293.601	819.247
293.912	818.1
294.225	816.807
294.538	815.653
294.849	814.325
295.162	814.887
295.473	817.015
295.786	815.036
296.097	813.848
296.41	813.418
296.723	815.799
297.034	819.78
297.347	823.99
297.658	827.837
297.971	830.516
298.284	833.211
298.595	834.883
298.908	835.995
299.219	832.663
299.532	832.689
299.843	832.62
300.156	832.055
300.467	831.308
300.779	830.515
301.092	828.827
301.403	827.102
301.716	825.883
302.027	825.643
302.34	825.402
302.65	824.764
302.963	825.13
303.274	826.307
303.587	827.265
303.897	827.759
304.21	827.214
304.521	826.613
304.834	825.909
305.146	825.96
305.457	825.491
305.77	825.548
306.081	828.251
306.393	829.018
306.704	828.584
307.017	826.957
307.327	822.409
307.64	817.947
307.95	813.982
308.263	810.661
308.574	807.737
308.886	805.479
309.197	803.725
309.509	802.563
309.82	801.959
310.133	801.837
310.443	802.06
310.756	802.878
311.066	804.606
311.379	805.765
311.689	806.711
312.002	806.079
312.312	805.843
312.622	805.292
312.935	803.745
313.245	799.233
313.558	794.016
313.868	788.354
314.181	783.631
314.491	779.226
314.803	775.694
315.114	773.767
315.426	773.34
315.736	774.635
316.049	777.616
316.359	781.241
316.669	784.437
316.982	781.211
317.292	778.249
317.604	773.005
317.915	768.012
318.227	764.101
318.537	760.552
318.849	757.316
319.16	754.351
319.47	751.333
319.782	747.45
320.092	744.041
320.405	741.32
320.715	740.165
321.027	740.354
321.337	741.832
321.647	745.37
321.959	749.339
322.269	750.321
322.582	750.993
322.892	751.693
323.202	750.322
323.514	746.783
323.824	743.45
324.136	740.474
324.446	737.986
324.756	736.195
325.068	735.329
325.378	735.506
325.69	737.489
326	738.844
326.31	739.303
326.622	740.158
326.932	741.551
327.242	743.983
327.554	746.477
327.864	749.007
328.176	750.222
328.486	749.373
328.796	748.239
329.108	746.818
329.418	743.016
329.727	739.426
330.039	736.342
330.349	733.824
330.659	732.154
330.971	731.211
331.281	730.71
331.592	731.081
331.902	731.925
332.212	732.077
332.524	731.213
332.834	730.086
333.143	728.914
333.455	727.892
333.765	726.796
334.074	726.426
334.386	725.842
334.696	724.868
335.006	724.017
335.317	723.344
335.627	723.081
335.937	724.187
336.246	725.826
336.558	727.902
336.868	729.96
337.177	731.883
337.489	733.758
337.798	736.908
338.108	740.073
338.42	743.539
338.729	746.854
339.039	749.073
339.35	749.823
339.66	749.683
339.969	749.516
340.279	749.445
340.59	749.251
340.9	749.283
341.209	748.936
341.521	748.331
341.83	747.275
342.14	745.302
342.449	741.066
342.761	738.622
343.07	737.111
343.379	736.45
343.689	736.78
344	737.509
344.31	738.674
344.619	740.286
344.93	742.082
345.24	743.69
345.549	744.989
345.858	745.918
346.17	746.952
346.479	748.046
346.788	749.117
347.097	749.831
347.407	748.012
347.718	744.515
348.027	741.971
348.336	740.29
348.646	739.593
348.957	739.727
349.266	740.574
349.575	740.987
349.885	741.622
350.196	741.865
350.505	741.879
350.814	742.362
351.123	743.14
351.432	742.697
351.743	742.01
352.053	741.516
352.362	740.867
352.671	740.088
352.98	739.509
353.291	740.283
353.6	741.254
353.909	742.274
354.218	742.782
354.527	743.757
354.838	744.676
355.147	745.684
355.456	746.643
355.765	747.512
356.074	748.403
356.385	749.064
356.694	749.527
357.003	749.685
357.312	750.018
357.621	750.493
357.93	751.629
358.241	754.4
358.55	757.661
358.858	761.183
359.167	761.287
359.476	761.474
359.785	762.102
360.096	762.148
360.405	761.255
360.713	760.466
361.022	760.851
361.331	761.147
361.64	760.522
361.949	759.102
362.259	757.981
362.568	756.9
362.877	756.302
363.186	754.668
363.494	751.797
363.803	749.47
364.112	748.292
364.422	749.702
364.731	749.311
365.04	749.451
365.348	749.947
365.657	751.401
365.966	752.944
366.274	755.154
366.583	758.632
366.892	760.8
367.202	761.194
367.511	761.249
367.819	761.143
368.128	760.833
368.436	760.656
368.745	760.668
369.054	760.67
369.362	760.264
369.671	760.492
369.979	761.698
370.29	762.982
370.598	762.918
370.907	762.66
371.215	762.622
371.523	763.091
371.832	763.718
372.14	764.857
372.449	766.193
372.757	767.762
373.066	769.935
373.374	769.866
373.682	769.669
373.991	771.686
374.299	771.103
374.607	770.109
374.918	766.385
375.226	763.581
375.534	764.374
375.843	766.731
376.151	769.356
376.459	771.208
376.768	773.4
377.076	775.449
377.384	776.666
377.692	776.062
378	775.373
378.309	774.069
378.617	772.095
378.925	771.474
379.233	771.851
379.541	772.971
379.85	775.252
380.158	776.413
380.466	774.563
380.774	773.148
381.082	772.007
381.39	771.081
381.698	770.212
382.007	769.134
382.315	767.036
382.623	766.863
382.931	768.646
383.239	771.896
383.547	776.167
383.855	774.157
384.163	768.14
384.471	765.31
384.779	765.385
385.087	767.895
385.395	772.077
385.703	776.815
386.011	781.512
386.319	785.363
386.627	788.348
386.935	789.773
387.243	789.715
387.55	788.933
387.858	788.229
388.166	786.844
388.474	785.548
388.782	784.888
389.09	785.31
389.398	783.421
389.706	777.815
390.013	776.549
390.321	776.584
390.627	777.377
390.935	779.977
391.242	784.065
391.55	787.235
391.858	789.428
392.166	791.081
392.474	792.566
392.781	793.692
393.089	794.672
393.397	795.356
393.704	795.89
394.012	795.876
394.32	795.822
394.627	795.842
394.935	795.749
395.241	796.2
395.548	796.995
395.856	798.821
396.164	801.946
396.471	805.489
396.779	806.601
397.086	808.689
397.394	811.244
397.702	814.727
398.009	819.145
398.315	823.735
398.622	824.48
398.93	822.99
399.237	820.811
399.545	819.122
399.852	814.097
400.16	812.369
400.467	810.448
400.775	807.437
401.08	806.562
401.387	806.855
401.695	808.724
402.002	813.799
402.31	818.528
402.617	823.156
402.924	818.413
403.23	815.009
403.537	813.103
403.845	812.053
404.152	811.628
404.459	811.644
404.767	812.164
405.074	812.711
405.379	814.204
405.686	813.017
405.994	817.425
406.301	821.346
406.608	824.473
406.916	826.822
407.221	829.329
407.528	831.596
407.835	833.745
408.142	834.346
408.45	833.428
408.757	832.746
409.062	833.333
409.369	835.166
409.676	838.423
409.983	839.27
410.291	838.663
410.596	837.475
410.903	835.78
411.21	833.904
411.517	831.661
411.824	829.21
412.129	827.685
412.436	829.447
412.743	830.3
413.05	831.594
413.357	833.562
413.662	835.201
413.969	839.425
414.276	845.318
414.583	849.743
414.89	848.867
415.195	848.932
415.502	850.487
415.809	852.63
416.116	855.624
416.421	856.809
416.728	858.6
417.035	862.269
417.342	866.318
417.647	870.155
417.954	874.165
418.26	876.862
418.567	878.867
418.872	880.278
419.179	881.429
419.486	882.164
419.793	883.161
420.097	883.786
420.404	879.445
420.711	874.929
421.018	870.733
421.323	867.613
421.629	865.473
421.936	863.967
422.243	863.177
422.548	863.014
422.854	863.5
423.161	863.318
423.466	866.259
423.772	868.969
424.079	871.543
424.386	874.536
424.69	878.233
424.997	881.284
425.304	883.123
425.608	884.114
425.915	884.622
426.221	884.468
426.526	883.937
426.833	882.899
427.139	881.533
427.446	879.732
427.75	879.882
428.057	879.008
428.363	875.258
428.668	874.363
428.974	872.349
429.281	871.436
429.585	872.098
429.892	873.734
430.198	876.043
430.503	879.537
430.809	884.191
431.116	889.38
431.42	894.903
431.726	899.857
432.033	898.514
432.337	896.877
432.644	896.524
432.95	896.581
433.254	897.25
433.561	898.157
433.867	899.175
434.171	900.17
434.478	900.285
434.782	900.075
435.088	900.534
435.395	901.621
435.699	904.25
436.005	907.981
436.311	912.182
436.616	912.707
436.922	908.455
437.228	904.117
437.532	899.9
437.839	895.921
438.143	893.999
438.449	890.831
438.755	895.48
439.059	898.777
439.365	903.077
439.669	895.535
439.976	904.702
440.282	912.151
440.586	912.465
440.892	912.405
441.196	890.228
441.502	887.216
441.808	885.24
442.112	883.782
442.418	883.895
442.722	886.125
443.028	890.923
443.332	893.241
443.638	893.693
443.944	892.701
444.248	888.534
444.554	888.976
444.858	890.969
445.164	892.42
445.468	893.324
445.774	893.828
446.08	894.572
446.384	895.465
446.69	896.514
446.994	897.577
447.3	898.733
447.604	899.941
447.91	901.127
448.213	902.279
448.519	901.08
448.825	900.86
449.129	900.839
449.435	900.3
449.739	900.147
450.044	899.691
450.348	899.167
450.654	898.838
450.958	900.492
451.263	902.824
451.567	904.759
451.873	907.235
452.177	910.474
452.482	913.775
452.786	916.467
453.092	917.048
453.395	915.71
453.701	917.347
454.005	918.904
454.31	919.543
454.614	919.62
454.92	919.305
455.223	918.396
455.529	917.104
455.832	915.301
456.138	913.426
456.442	910.972
456.747	909.542
457.051	911.888
457.356	916.623
457.66	920.135
457.965	918.621
458.269	916.96
458.574	915.767
458.878	914.289
459.183	912.74
459.487	910.942
459.792	909.005
460.096	906.899
460.399	905.145
460.705	903.654
461.008	904.961
461.314	907.145
461.617	910.407
461.922	907.159
462.226	903.54
462.531	900.643
462.835	902.278
463.138	904.894
463.443	907.683
463.747	910.695
464.052	913.853
464.355	917.028
464.661	921.245
464.964	925.143
465.267	928.536
465.572	930.7
465.876	929.179
466.181	927.76
466.484	926.856
466.789	926.888
467.093	930.081
467.396	928.997
467.701	926.062
468.004	922.939
468.309	921.616
468.613	921.249
468.916	921.521
469.221	921.417
469.524	922.004
469.829	923.736
470.132	927.312
470.435	931.632
470.74	936.137
471.044	938.891
471.347	939.46
471.652	937.308
471.955	934.57
472.26	932.321
472.563	931.627
472.866	930.671
473.171	929.807
473.474	928.779
473.777	926.931
474.082	924.897
474.385	923.084
474.69	922.811
474.993	923.904
475.296	923.682
475.601	924.006
475.904	924.788
476.207	925.97
476.511	927.134
476.814	929.008
477.117	930.904
477.422	932.793
477.725	934.442
478.028	935.825
478.333	937.086
478.635	938.149
478.938	939.125
479.243	939.774
479.546	940.341
479.849	941.228
480.154	941.821
480.456	945.065
480.759	945.064
481.064	944.773
481.367	944.523
481.669	944.112
481.972	943.589
482.277	942.643
482.579	940.628
482.882	938.352
483.187	936.133
483.49	934.712
483.792	934.467
484.095	934.365
484.399	934.532
484.702	934.434
485.005	934.241
485.309	934.04
485.612	933.322
485.915	932.9
486.217	932.714
486.522	933.22
486.824	933.73
487.127	940.804
487.431	939.506
487.734	938.698
488.036	938.215
488.339	937.851
488.643	937.506
488.946	937.199
489.248	936.973
489.551	936.689
489.855	935.944
490.158	935.265
490.46	934.123
490.763	932.654
491.067	925.406
491.369	924.115
491.672	924.222
491.974	925.905
492.277	929.278
492.581	934.844
492.883	938.412
493.186	939.694
493.488	947.029
493.792	947.708
494.095	939.719
494.397	933.649
494.699	931.429
495.002	932.656
495.306	927.42
495.608	922.585
495.91	918.865
496.213	916.303
496.515	914.933
496.819	915.422
497.121	917.036
497.424	920.386
497.726	922.495
498.028	920.612
498.332	920.552
498.634	921.472
498.936	921.281
499.239	922.931
499.541	920.261
499.843	917.193
500.147	913.565
500.449	909.791
500.751	906.352
501.053	903.937
501.355	901.954
501.659	901.729
501.961	902.686
502.264	903.761
502.566	905.212
502.868	906.322
503.17	907.745
503.472	907.402
503.776	902.317
504.078	898.311
504.38	895.532
504.682	892.886
504.983	891.105
505.285	890.094
505.587	890.019
505.891	891.413
506.193	894.226
506.495	897.58
506.797	901.358
507.099	904.838
507.401	907.765
507.703	907.674
508.004	907.476
508.308	907.581
508.61	907.735
508.912	907.784
509.214	907.553
509.516	906.991
509.817	906.2
510.119	905.187
510.421	903.121
510.723	900.676
511.024	897.773
511.328	894.432
511.63	891.33
511.932	888.351
512.233	886.033
512.535	884.002
512.837	882.256
513.138	879.63
513.44	876.505
513.742	874.066
514.043	872.497
514.345	872.692
514.647	872.387
514.948	872.343
515.252	870.349
515.554	870.595
515.855	871.724
516.157	872.704
516.458	873.966
516.76	875.335
517.061	876.724
517.363	878.044
517.665	878.547
517.966	876.015
518.268	877.112
518.569	879.152
518.871	880.921
519.172	882.963
519.474	884.004
519.775	882.831
520.076	881.624
520.378	879.43
520.679	879.686
520.981	879.246
521.282	877.81
521.584	875.813
521.885	873.871
522.186	870.801
522.488	869.994
522.789	869.437
523.09	869.161
523.392	868.677
523.693	867.783
523.994	867.047
524.296	866.732
524.597	866.82
524.898	866.906
525.2	868.261
525.501	869.798
525.802	871.009
526.103	870.423
526.405	869.72
526.706	869.244
527.007	868.714
527.308	868.476
527.609	868.438
527.911	868.682
528.212	869.24
528.513	870.187
528.814	871.429
529.115	873.114
529.417	875.286
529.718	875.254
530.019	873.76
530.32	872.276
530.621	871.554
530.922	870.744
531.223	870.067
531.524	869.243
531.825	867.864
532.126	866.994
532.427	867.002
532.726	871.125
533.027	882.607
533.328	882.739
533.629	880.447
533.93	878.587
534.231	877.175
534.532	876.444
534.833	876.191
535.134	876.789
535.435	875.629
535.736	874.848
536.037	874.625
536.338	875.615
536.637	877.496
536.938	876.96
537.239	876.597
537.54	877.823
537.84	877.586
538.141	874.237
538.442	874.192
538.743	874.405
539.044	869.435
539.345	866.427
539.643	874.656
539.944	876.778
540.245	878.32
540.546	880.113
540.847	881.442
541.147	881.52
541.448	876.544
541.749	873.647
542.047	871.485
542.348	869.995
542.649	868.995
542.95	869.267
543.25	871.158
543.551	873.838
543.852	876.957
544.15	879.8
544.451	878.996
544.752	877.67
545.052	876.911
545.353	876.992
545.653	877.74
545.952	880.087
546.253	884.16
546.553	891.782
546.854	895.193
547.154	894.751
547.455	896.556
547.753	893.773
548.054	892.471
548.354	891.475
548.655	891.824
548.955	891.622
549.256	890.419
549.554	888.064
549.855	888.846
550.155	891.249
550.456	892.881
550.756	894.682
551.055	897.662
551.355	894.902
551.655	888.852
551.956	886.369
552.256	883.453
552.555	882.724
552.855	886.536
553.155	890.792
553.456	892.693
553.756	895.735
554.054	902.79
554.355	909.224
554.655	914.185
554.955	918.176
555.253	921.202
555.554	923.626
555.854	920.816
556.154	917.744
556.453	915.471
556.753	913.555
557.053	912.349
557.353	916.104
557.651	919.295
557.952	925.386
558.252	924.294
558.552	924.207
558.85	925.782
559.15	928.765
559.45	932.124
559.751	932.474
560.049	927.426
560.349	921.575
560.649	917.349
560.949	914.777
561.247	914.879
561.547	916.171
561.847	914.816
562.145	915.982
562.445	920.863
562.745	923.356
563.045	926.607
563.343	930.63
563.643	935.921
563.943	938.844
564.241	939.631
564.541	940.334
564.841	944.469
565.141	948.738
565.439	952.831
565.739	956.725
566.039	960.656
566.337	959.863
566.637	958.902
566.937	957.953
567.235	957.748
567.535	957.877
567.835	958.472
568.132	959.421
568.432	960.743
568.732	962.455
569.03	964.08
569.33	961.368
569.63	958.573
569.927	955.842
570.227	956.71
570.527	959.235
570.825	962.378
571.124	966.184
571.424	970.675
571.722	976.212
572.022	982.597
572.321	989.606
572.619	995.684
572.919	998.145
573.218	1002.2
573.516	1004.62
573.816	1006.84
574.113	1008.76
574.413	1009.54
574.713	1010.37
575.01	1010.48
575.31	1010.96
575.61	1012.91
575.907	1014.74
576.207	1017.83
576.504	1020.72
576.804	1024.32
577.104	1026.84
577.401	1028.6
577.701	1029.78
577.998	1030.1
578.298	1029.92
578.597	1028.25
578.895	1026.91
579.194	1027.77
579.492	1029.6
579.791	1032.14
580.091	1034.97
580.388	1037.18
580.688	1040.8
580.985	1045.5
581.284	1050.51
581.582	1055.72
581.881	1059.81
582.181	1062.87
582.478	1065.25
582.777	1067.53
583.075	1069.9
583.374	1072.23
583.671	1074.33
583.971	1076.79
584.27	1078.97
584.567	1080.28
584.867	1081.47
585.164	1083.16
585.463	1085.07
585.761	1087.06
586.06	1089.1
586.357	1092.28
586.656	1096.23
586.954	1100.53
587.253	1104.56
587.552	1107.2
587.849	1108.39
588.148	1109.64
588.446	1111.39
588.745	1113.68
589.042	1116.36
589.341	1119.68
589.638	1123.35
589.938	1127.45
590.235	1131.27
590.534	1134.1
590.831	1136.24
591.13	1137.83
591.427	1140.01
591.726	1142.66
592.023	1146.15
592.322	1150.1
592.619	1153.76
592.918	1157.73
593.215	1161.77
593.514	1164.9
593.811	1166.87
594.11	1169.5
594.407	1172.58
594.706	1175.84
595.003	1178.91
595.26	1181.76
595.563	1185.82
595.864	1192.33
596.165	1198.67
596.466	1201.22
596.767	1201.33
597.068	1201.76
597.369	1202.81
597.672	1205.91
597.972	1209.62
598.273	1213.68
598.574	1218.13
598.875	1222.62
599.176	1227.2
599.477	1231.38
599.78	1235.25
600.081	1238.79
600.381	1242.14
600.682	1245.82
600.983	1249.69
601.284	1249.31
601.585	1250.13
601.885	1252.48
602.186	1254.88
602.489	1257.97
602.79	1260.01
603.09	1262.74
603.391	1268.41
603.692	1275.79
603.993	1283.36
604.293	1291.27
604.594	1299.16
604.895	1305.01
605.195	1310.19
605.496	1314.89
605.799	1317.47
606.099	1318.48
606.4	1318.22
606.7	1317.14
607.001	1315.82
607.302	1314.48
607.602	1314.6
607.903	1314.74
608.203	1315.18
608.504	1316.61
608.805	1318.49
609.105	1321.1
609.406	1324.94
609.706	1327.79
610.009	1331.87
610.309	1337.05
610.61	1342.87
610.91	1347.42
611.211	1354.08
611.511	1355.9
611.811	1356.87
612.112	1358.28
612.412	1360.77
612.713	1363.13
613.013	1365.49
613.314	1367.67
613.614	1369.84
613.914	1371.82
614.215	1373.5
614.515	1371.41
614.815	1369.88
615.116	1369.86
615.416	1370.91
615.716	1372.98
616.017	1375.96
616.317	1374.85
616.617	1373.41
616.918	1372.62
617.218	1372.99
617.518	1371.48
617.818	1367.25
618.119	1363.79
618.419	1358.68
618.719	1355.09
619.019	1353.39
619.319	1352.78
619.62	1352.46
619.92	1351.6
620.22	1350.86
620.52	1349.66
620.82	1348.29
621.12	1347.31
621.421	1345.83
621.721	1340.14
622.021	1334.23
622.321	1329.8
622.621	1326.89
622.921	1324.69
623.221	1323.42
623.521	1322.84
623.821	1323.29
624.121	1324.91
624.421	1327.54
624.721	1330.76
625.021	1335.24
625.321	1339.57
625.621	1343.28
625.921	1345.53
626.221	1346.51
626.519	1344.15
626.819	1338.17
627.119	1331.67
627.419	1324.96
627.719	1318.23
628.019	1311.84
628.319	1306.07
628.619	1301.14
628.919	1297.4
629.219	1295.07
629.518	1294.12
629.818	1290.06
630.118	1284.79
630.418	1280.09
630.716	1277.97
631.016	1278.06
631.315	1278.81
631.615	1279.75
631.915	1280.96
632.215	1281.18
632.514	1282.98
632.814	1284.48
633.114	1286.14
633.414	1286.14
633.713	1284.2
634.011	1280.2
634.311	1276.84
634.61	1273.51
634.91	1271.39
635.21	1269.57
635.51	1268.16
635.809	1267.55
636.109	1267.95
636.406	1268.78
636.706	1269.93
637.006	1270.77
637.305	1271.08
637.605	1270.88
637.904	1269.69
638.204	1268.44
638.504	1267.21
638.801	1265.53
639.101	1263.63
639.4	1260.69
639.7	1257.38
639.999	1253.61
640.299	1250.3
640.598	1246.98
640.896	1244.09
641.195	1241.71
641.495	1239.89
641.794	1238.26
642.094	1236.58
642.393	1234.66
642.69	1232.92
642.99	1230.82
643.289	1229.43
643.589	1228.37
643.888	1227.61
644.188	1226.78
644.485	1225.79
644.784	1224.55
645.084	1223.03
645.383	1221.33
645.682	1219.75
645.98	1218.53
646.279	1217.91
646.578	1218.42
646.877	1219.18
647.177	1222.08
647.474	1226.08
647.773	1230.62
648.073	1235.21
648.372	1239.19
648.671	1241.71
648.968	1242.91
649.267	1243.97
649.567	1244.26
649.866	1243.89
650.165	1243.09
650.462	1241.47
650.761	1239.28
651.06	1236.61
651.36	1233.48
651.657	1229.96
651.956	1226.92
652.255	1223.62
652.554	1219.39
652.853	1206.52
653.15	1203.71
653.449	1203.71
653.748	1208.22
654.047	1211.65
654.344	1211.9
654.643	1211.11
654.943	1209.58
655.242	1207.62
655.539	1205.61
655.838	1203.4
656.136	1200.65
656.435	1197.23
656.732	1193.89
657.031	1190.5
657.33	1187.71
657.629	1184.51
657.926	1180.85
658.225	1175.71
658.524	1170.56
658.821	1166.28
659.12	1161.67
659.419	1155.66
659.718	1150.85
660.014	1147.39
660.313	1146.38
660.612	1152.39
660.909	1159.52
661.208	1164.12
661.507	1166.61
661.805	1167.73
662.102	1166.74
662.401	1163.96
662.7	1156.96
662.996	1150.62
663.295	1144.86
663.594	1139.91
663.891	1136.26
664.189	1134.73
664.488	1128.93
664.785	1111.52
665.083	1105.62
665.382	1101.93
665.679	1100.32
665.977	1100.97
666.276	1104.26
666.573	1105.33
666.871	1102.76
667.17	1098.23
667.467	1095.55
667.765	1093.45
668.064	1091.49
668.36	1089.32
668.659	1086.58
668.957	1083.59
669.254	1078.96
669.553	1074.8
669.851	1070.84
670.148	1066.59
670.446	1062.48
670.745	1058.35
671.041	1054.51
671.34	1050.87
671.638	1047.46
671.935	1044.2
672.233	1041.43
672.529	1038.45
672.828	1037.77
673.126	1050.35
673.423	1051.76
673.721	1048.16
674.02	1044.5
674.316	1027.15
674.614	1015.43
674.911	1003.86
675.209	993.478
675.507	985.248
675.804	989.045
676.102	990.566
676.398	996.048
676.697	1002.76
676.995	1010.18
677.291	1014.41
677.589	1016.47
677.886	1012.73
678.184	1010.56
678.482	1007.05
678.779	1002.93
679.077	998.216
679.373	993.391
679.671	988.791
679.967	983.766
680.266	979.066
680.564	973.815
680.86	968.763
681.158	964.162
681.454	960.126
681.752	957.481
682.048	954.794
682.347	953.539
682.645	954.761
682.941	956.253
683.239	956.533
683.535	957.033
683.833	957.295
684.129	956.794
684.427	954.982
684.723	952.669
685.021	950.222
685.319	947.845
685.615	944.403
685.913	937.457
686.209	930.354
686.507	923.465
686.803	917.626
687.101	912.565
687.397	907.966
687.695	904.009
687.991	901.136
688.289	898.929
688.585	898.253
688.883	899.484
689.179	901.138
689.477	902.883
689.772	904.311
690.07	904.447
690.366	903.333
690.664	901.856
690.96	899.454
691.258	895.471
691.553	890.822
691.851	885.692
692.147	880.151
692.445	875.578
692.741	873.081
693.038	870.798
693.334	868.597
693.632	866.872
693.928	865.191
694.225	863.225
694.521	863.676
694.819	859.029
695.115	860.142
695.412	866.482
695.708	866.762
696.006	866.314
696.301	861.638
696.597	854.218
696.895	850.449
697.19	847.604
697.488	845.672
697.783	844.376
698.081	843.883
698.377	843.924
698.674	842.125
698.97	838.168
699.267	834.468
699.563	830.896
699.858	828.654
700.156	827.285
700.452	826.867
700.749	826.655
701.045	826.431
701.342	824.916
701.638	824.318
701.933	824.148
702.23	824.928
702.526	825.782
702.823	826.799
703.119	827.651
703.416	828.439
703.712	829.021
704.007	827.993
704.305	826.779
704.6	825.473
704.897	824.037
705.193	822.632
705.488	821.129
705.785	819.432
706.081	817.656
706.378	816.088
706.673	814.8
706.969	812.625
707.266	810.977
707.561	809.136
707.857	807.605
708.154	804.986
708.449	803.997
708.746	801.656
709.042	797.043
709.337	792.924
709.634	789.29
709.929	786.23
710.224	783.888
710.522	782.364
710.817	781.403
711.114	781.096
711.409	782.068
711.704	784.05
712.002	786.368
712.297	789.205
712.592	791.861
712.889	792.357
713.184	790.034
713.479	788.077
713.776	786.296
714.071	784.813
714.366	781.703
714.663	777.329
714.958	773.188
715.254	769.812
715.551	766.578
715.846	764.065
716.141	762.24
716.438	761.074
716.733	760.268
717.028	759.721
717.325	759.477
717.62	759.457
717.914	759.159
718.211	758.763
718.506	757.959
718.801	757.139
719.096	756.392
719.393	755.692
719.688	755.179
719.983	754.954
720.28	755.326
720.575	756.074
720.87	757.055
721.164	758.346
721.461	758.926
721.756	756.869
722.051	754.672
722.348	752.735
722.642	750.702
722.937	748.667
723.232	746.696
723.529	744.953
723.824	743.264
724.118	741.924
724.415	740.727
724.71	739.887
725.005	739.683
725.299	738.423
725.596	735.394
725.891	732.828
726.185	730.854
726.48	729.362
726.777	728.379
727.071	728.547
727.366	729.783
727.661	731.44
727.957	733.491
728.252	735.746
728.546	737.017
728.841	735.522
729.136	732.952
729.432	733.739
729.727	731.756
730.021	729.758
730.316	728.431
730.612	729.061
730.907	728.902
731.201	728.528
731.496	728.243
731.791	728.774
732.087	728.28
732.381	727.523
732.676	726.465
732.97	726.877
733.265	727.055
733.561	726.618
733.856	724.745
734.15	722.503
734.445	719.844
734.739	716.247
735.035	713.88
735.33	713.774
735.624	715.394
735.919	717.471
736.213	719.848
736.509	721.57
736.804	719.44
737.098	717.567
737.392	716.289
737.687	716.095
737.981	716.509
738.277	717.601
738.571	719.091
738.866	720.084
739.16	716.904
739.454	713.726
739.748	710.935
740.045	708.446
740.339	706.921
740.633	706.095
740.927	705.87
741.222	706.078
741.516	706.874
741.81	708.653
742.106	710.661
742.4	712.783
742.694	713.718
742.989	713.441
743.283	708.86
743.577	703.917
743.871	699.221
744.165	696.324
744.461	693.879
744.755	691.872
745.049	691.375
745.343	691.998
745.637	693.436
745.931	695.367
746.225	697.552
746.519	699.905
746.813	702.262
747.109	704.388
747.403	705.9
747.697	706.806
747.991	706.773
748.285	705.764
748.579	702.547
748.873	698.441
749.167	693.993
749.461	689.681
749.755	686.426
750.049	682.99
750.345	680.557
750.639	679.539
750.933	679.695
751.227	681.411
751.52	683.19
751.814	684.689
752.108	685.99
752.402	687.216
752.696	688.228
752.99	687.998
753.283	685.276
753.577	682.683
753.871	680.211
754.165	677.348
754.458	674.541
754.754	672.513
755.048	671.192
755.342	671.983
755.635	673.611
755.929	675.491
756.223	677.375
756.517	678.998
756.81	681.339
757.104	681.716
757.398	680.39
757.691	680.214
757.985	681.712
758.279	683.374
758.572	685.221
758.866	686.996
759.159	688.701
759.453	689.988
759.747	691.16
760.04	690.917
760.334	689.011
760.627	687.225
760.921	686.086
761.214	685.147
761.508	683.941
761.801	682.816
762.095	681.53
762.388	680.119
762.682	678.792
762.975	677.692
763.269	676.785
763.562	676.184
763.856	676.568
764.149	676.749
764.443	677.173
764.736	677.674
765.03	677.367
765.323	677.028
765.616	677.162
765.91	677.373
766.203	677.722
766.497	678.073
766.79	678.315
767.083	677.732
767.377	676.967
767.67	675.915
767.961	671.388
768.255	669.164
768.548	667.627
768.841	667.431
769.135	668.38
769.428	669.447
769.721	669.649
770.014	668.189
770.308	666.994
770.601	665.99
770.894	665.536
771.187	665.6
771.481	665.982
771.774	666.709
772.067	668.245
772.36	670.563
772.651	670.854
772.944	671.605
773.238	672.51
773.531	673.585
773.824	674.581
774.117	675.338
774.41	673.207
774.703	670.427
774.996	667.319
775.289	663.812
775.583	660.571
775.874	657.729
776.167	656.021
776.46	655.288
776.753	655.603
777.046	657.052
777.339	659.377
777.632	662.129
777.925	663.17
778.216	662.692
778.509	662.297
778.802	661.914
779.095	661.631
779.388	661.525
779.681	661.523
779.974	661.667
780.267	661.884
780.557	662.178
780.85	662.56
781.143	663.041
781.436	663.521
781.729	664.205
782.022	665.186
782.315	665.381
782.606	665.359
782.898	663.737
783.191	663.169
783.484	663.118
783.777	662.99
784.07	663.031
784.361	663.097
784.653	662.986
784.946	662.942
785.239	662.985
785.532	662.632
785.824	662.075
786.115	661.677
786.408	661.562
786.701	662.184
786.993	664.333
787.286	666.427
787.577	668.572
787.869	670.569
788.162	671.713
788.455	672.684
788.747	673.286
789.04	673.545
789.331	673.65
789.623	673.559
789.916	673.381
790.208	673.092
790.499	672.704
790.792	672.632
791.084	672.26
791.377	671.745
791.669	671.377
791.96	671.258
792.252	671.821
792.545	673.422
792.838	674.958
793.128	673.026
793.421	673.722
793.713	675.877
794.005	679.379
794.298	677.152
794.588	674.401
794.881	671.724
795.173	670.933
795.466	670.153
795.756	670.383
796.049	671.284
796.341	672.272
796.633	673.498
796.924	674.492
797.216	675.651
797.509	677.17
797.799	678.942
798.091	680.09
798.384	678.117
798.676	676.555
798.966	674.685
799.259	672.94
799.551	672.058
799.843	673.276
800.134	672.729
800.426	672.527
800.718	666.357
801.008	669.022
801.301	675.005
801.593	675.331
801.885	674.347
802.175	673.585
802.467	672.813
802.76	671.988
803.05	671.214
803.342	670.426
803.634	669.804
803.924	669.308
804.217	669.046
804.509	669.223
804.801	671.071
805.091	673.298
805.383	672.87
805.675	670.725
805.965	669.011
806.257	668.049
806.549	667.925
806.84	669.115
807.132	671.453
807.424	674.661
807.714	679.251
808.006	682.781
808.298	681.831
808.588	680.775
808.88	679.602
809.172	678.148
809.462	676.707
809.754	675.55
810.044	675.103
810.336	675.208
810.628	676.193
810.918	676.524
811.209	676.799
811.501	676.957
811.791	677.182
812.083	678.312
812.375	678.251
812.665	676.869
812.957	677.238
813.247	678.386
813.539	679.991
813.83	680.986
814.12	680.005
814.412	678.666
814.702	677.213
814.994	676.265
815.285	676.092
815.575	676.256
815.867	676.558
816.159	676.986
816.449	677.629
816.74	678.317
817.03	678.812
817.322	679.871
817.612	681.064
817.903	682.501
818.195	682.24
818.485	682.586
818.776	683.177
819.066	684.006
819.358	685.057
819.649	686.149
819.939	686.883
820.231	686.405
820.52	685.882
820.812	684.175
821.102	682.622
821.393	681.809
821.685	681.279
821.974	680.996
822.266	681.214
822.555	680.685
822.847	680.419
823.137	680.957
823.428	682.352
823.718	683.856
824.009	684.574
824.299	685.031
824.59	684.876
824.882	684.199
825.171	683.121
825.463	681.892
825.752	680.899
826.043	680.346
826.333	682.194
826.624	684.074
826.914	684.869
827.205	683.968
827.495	682.897
827.786	683.645
828.075	684.437
828.367	685.004
828.656	685.55
828.948	686.897
829.237	687.935
829.528	688.553
829.818	686.009
830.109	687.443
830.398	686.831
830.689	686.612
830.979	686.938
831.27	687.432
831.559	687.909
831.851	688.494
832.14	688.916
832.431	689.214
832.72	689.337
833.012	689.468
833.301	689.826
833.592	690.107
833.881	690.472
834.172	690.728
834.462	690.232
834.751	687.035
835.042	683.647
835.331	680.071
835.622	676.278
835.911	673.41
836.202	670.858
836.492	669.236
836.783	669.126
837.072	670.471
837.363	672.324
837.652	674.605
837.941	676.88
838.232	679.15
838.521	682.113
838.812	684.757
839.101	686.821
839.392	688.102
839.681	688.304
839.97	687.299
840.261	685.107
840.55	682.191
840.841	678.452
841.13	673.418
841.419	668.305
841.71	664.099
841.999	660.901
842.29	658.708
842.579	657.32
842.87	656.939
843.159	657.261
843.448	657.949
843.739	659.353
844.027	661.227
844.316	663.458
844.607	665.543
844.896	667.655
845.187	669.796
845.476	670.928
845.764	671.608
846.055	671.598
846.344	669.444
846.635	668.469
846.924	667.805
847.212	667.907
847.503	667.922
847.792	667.958
848.081	667.225
848.371	667.726
848.66	668.363
848.949	669.832
849.24	669.976
849.528	669.111
849.819	668.271
850.108	667.277
850.396	667.144
850.687	665.072
850.976	663.172
851.264	662.211
851.555	660.773
851.844	658.354
852.132	655.59
852.423	652.947
852.711	650.189
853	647.637
853.291	645.191
853.579	642.904
853.868	641.014
854.156	639.41
854.447	636.629
854.735	632.88
855.024	629.236
855.314	625.906
855.603	622.697
855.891	620.596
856.182	619.76
856.47	619.147
856.759	618.811
857.049	618.423
857.338	618.262
857.626	617.657
857.915	617.255
858.205	616.786
858.493	616.407
858.782	616.009
859.072	615.682
859.361	615.44
859.649	612.885
859.937	611.247
860.228	609.934
860.516	608.863
860.804	605.666
861.093	605.024
861.383	604.901
861.671	605.309
861.96	607.071
862.248	609.344
862.538	611.226
862.826	611.982
863.115	611.702
863.403	610.615
863.693	608.783
863.982	605.745
864.27	601.628
864.558	596.789
864.848	590.76
865.136	584.716
865.425	579.57
865.713	575.167
866.003	571.504
866.291	568.547
866.579	566.268
866.867	564.737
867.157	563.95
867.446	563.933
867.734	564.825
868.022	566.493
868.31	568.747
868.6	572.35
868.888	576.302
869.176	580.187
869.464	581.868
869.752	579.559
870.042	577.317
870.33	575.306
870.618	573.796
870.906	572.372
871.194	571.15
871.484	570.07
871.772	569.045
872.06	568.013
872.348	566.916
872.636	565.475
872.924	562.65
873.214	560.638
873.502	559.718
873.79	559.396
874.078	558.224
874.366	557.076
874.654	555.722
874.944	554.083
875.232	552.411
875.519	550.766
875.807	549.884
876.095	550.222
876.383	550.339
876.673	550.997
876.961	551.666
877.248	552.353
877.536	551.958
877.824	549.821
878.112	548.95
878.4	549.517
878.687	550.639
878.977	549.47
879.265	547.64
879.553	545.72
879.84	544.259
880.128	543.84
880.416	543.35
880.704	542.991
880.991	542.764
881.281	542.488
881.569	542.594
881.856	542.759
882.144	542.907
882.432	538.264
882.719	536.21
883.007	535.078
883.294	533.993
883.582	532.878
883.87	531.756
884.159	530.708
884.447	529.571
884.734	528.819
885.022	528.131
885.31	527.623
885.597	527.369
885.885	527.279
886.172	526.727
886.46	525.855
886.747	525.122
887.035	524.554
887.322	525.092
887.61	526.326
887.899	527.502
888.187	527.982
888.474	526.066
888.762	524.109
889.049	522.336
889.336	520.76
889.624	519.407
889.911	518.365
890.199	517.715
890.486	517.546
890.773	517.539
891.061	518.181
891.348	519.265
891.636	520.623
891.923	522.274
892.21	523.923
892.498	523.684
892.785	523.348
893.072	522.894
893.36	522.188
893.647	521.227
893.934	520.183
894.221	518.984
894.509	517.705
894.796	516.396
895.083	514.537
895.37	512.711
895.658	511.028
895.945	509.657
896.232	509.454
896.519	509.928
896.806	510.512
897.094	511.693
897.381	513.122
897.668	512.82
897.955	511.513
898.242	510.463
898.529	509.566
898.817	508.797
899.104	508.461
899.391	508.435
899.678	508.727
899.965	509.336
900.252	510.006
900.539	511.163
900.826	510.486
901.113	508.896
901.4	507.577
901.687	506.333
901.974	505.072
902.261	503.896
902.548	502.687
902.835	501.463
903.122	500.26
903.409	499.095
903.696	498.009
903.981	497.064
904.268	496.218
904.555	495.443
904.842	494.912
905.129	494.577
905.416	494.448
905.703	494.846
905.99	495.045
906.277	494.935
906.564	494.775
906.85	494.417
907.137	494.396
907.424	494.683
907.709	494.955
907.996	495.414
908.283	496.49
908.57	497.714
908.856	499.104
909.143	500.49
909.43	501.84
909.717	502.456
910.003	503.228
910.29	502.932
910.575	502.855
910.862	503.274
911.148	504.383
911.435	504.772
911.722	504.035
912.009	502.627
912.295	500.451
912.582	498.422
912.867	496.127
913.153	494.047
913.44	492.058
913.727	490.573
914.013	489.37
914.3	488.485
914.587	488.037
914.873	488.072
915.158	488.638
915.445	489.694
915.731	491.035
916.018	492.623
916.304	494.736
916.591	497.518
916.875	500.412
917.162	502.969
917.448	503.74
917.735	503.836
918.021	502.711
918.308	501.203
918.593	499.517
918.879	497.711
919.166	495.965
919.452	494.291
919.738	492.764
920.025	491.366
920.309	490.058
920.596	489.047
920.882	488.128
921.169	487.302
921.455	486.895
921.74	486.696
922.026	486.73
922.312	487.022
922.599	487.174
922.885	487.502
923.169	487.46
923.456	486.775
923.742	486.452
924.028	486.231
924.313	486.317
924.599	486.682
924.885	487.47
925.172	488.502
925.458	488.602
925.742	489.818
926.028	491.387
926.315	491.641
926.601	490.323
926.885	488.652
927.171	486.796
927.458	484.619
927.744	482.32
928.028	480.423
928.314	478.937
928.6	477.478
928.887	476.353
929.171	475.636
929.457	475.746
929.743	477.08
930.029	479.441
930.313	479.429
930.599	479.446
930.886	480.52
931.172	481.406
931.456	482.043
931.742	482.591
932.028	482.569
932.312	483.079
932.598	484.322
932.884	486.237
933.17	488.186
933.454	490.264
933.74	492.078
934.026	492.951
934.31	491.32
934.596	489.789
934.882	488.77
935.168	489.112
935.452	489.722
935.738	490.431
936.024	489.581
936.308	488.425
936.594	487.436
936.88	486.603
937.164	485.992
937.45	485.231
937.736	485.502
938.02	484.36
938.305	482.796
938.591	481.2
938.875	479.638
939.161	478.065
939.447	476.82
939.731	475.838
940.016	475.327
940.302	479.156
940.586	479.662
940.872	480.073
941.158	479.624
941.442	479.393
941.727	479.164
942.013	479.147
942.297	479.474
942.583	480.389
942.868	482.416
943.152	484.542
943.438	487.012
943.721	489.557
944.007	491.114
944.293	491.984
944.577	490.599
944.862	490.484
945.148	490.1
945.432	489.55
945.717	488.736
946.001	487.747
946.286	485.569
946.572	483.092
946.856	480.684
947.141	478.378
947.425	476.439
947.71	475.426
947.996	474.512
948.28	473.547
948.565	472.687
948.849	472.008
949.134	471.398
949.42	471.042
949.703	470.734
949.989	470.496
950.272	470.826
950.558	471.253
950.841	471.949
951.127	472.679
951.412	473.263
951.696	473.702
951.981	474.148
952.265	474.428
952.55	474.875
952.833	475.367
953.119	476.009
953.404	476.582
953.688	477.393
953.973	478.321
954.256	479.426
954.542	480.755
954.825	481.955
955.11	480.904
955.394	479.62
955.679	478.293
955.962	476.904
956.248	475.59
956.531	474.605
956.816	473.749
957.102	472.958
957.385	472.427
957.67	472.11
957.953	472.011
958.239	472.202
958.522	472.801
958.807	470.512
959.09	468.086
959.376	465.907
959.659	464.05
959.944	461.777
960.227	463.948
960.512	466.043
960.796	468.484
961.081	471.609
961.364	475.122
961.649	475.623
961.932	475.141
962.217	474.592
962.5	471.21
962.786	466.831
963.069	464.475
963.354	463.079
963.637	462.397
963.92	463.116
964.205	464.066
964.488	465.227
964.773	466.556
965.056	467.773
965.341	468.758
965.624	469.685
965.909	470.755
966.192	471.876
966.477	472.858
966.76	473.827
967.045	473.948
967.328	473.719
967.611	473.383
967.896	472.433
968.179	471.865
968.464	472.264
968.747	472.747
969.032	473.174
969.315	473.565
969.598	473.918
969.882	474.247
970.165	474.096
970.45	473.648
970.733	472.975
971.018	472.259
971.301	471.397
971.584	470.607
971.868	469.54
972.151	468.344
972.436	467.226
972.719	466.305
973.002	465.856
973.286	465.778
973.569	465.934
973.854	465.335
974.137	464.75
974.419	464.367
974.704	464.188
974.987	464.268
975.27	464.564
975.554	464.991
975.837	466.816
976.122	469.202
976.404	471.23
976.687	472.322
976.972	473.727
977.254	473.821
977.537	473.174
977.822	471.951
978.104	470.37
978.389	467.805
978.672	465.133
978.954	462.546
979.239	461.061
979.521	459.769
979.804	459.114
980.088	459.027
980.371	459.541
980.654	460.611
980.938	462.329
981.221	464.242
981.503	464.837
981.788	465.441
982.07	466.192
982.353	466.672
982.637	466.968
982.92	466.945
983.202	466.307
983.487	465.831
983.769	464.619
984.052	462.943
984.336	460.981
984.618	459.003
984.901	457.259
985.183	455.348
985.468	453.347
985.75	451.655
986.032	450.666
986.317	451.158
986.599	454.023
986.881	457.223
987.166	458.759
987.448	457.587
987.73	456.539
988.013	456.16
988.297	456.455
988.579	457.209
988.862	458.324
989.144	459.887
989.428	461.689
989.711	463.704
989.993	464.006
990.277	464.3
990.559	465.145
990.841	465.998
991.124	466.848
991.408	467.62
991.69	468.2
991.972	466.79
992.255	464.772
992.539	462.552
992.821	460.355
993.103	458.403
993.385	457.328
993.669	457.179
993.951	457.38
994.234	458.007
994.516	458.793
994.798	459.358
995.082	458.639
995.364	458.747
995.646	459.447
995.928	460.051
996.212	460.541
996.494	460.968
996.776	460.825
997.058	460.675
997.34	460.716
997.624	461.255
997.906	461.737
998.188	462.478
998.47	463.093
998.752	463.751
999.036	464.013
999.318	463.302
999.6	462.599
999.882	461.901
1000.16	461.363
1000.45	460.814
1000.73	460.499
1001.01	460.201
1001.29	460.086
1001.58	460.099
1001.86	460.266
1002.14	460.477
1002.42	460.799
1002.71	461.185
1002.99	461.665
1003.27	462.038
1003.55	462.39
1003.83	462.675
1004.12	462.638
1004.4	462.559
1004.68	461.828
1004.96	461.068
1005.24	460.423
1005.53	459.906
1005.81	459.824
1006.09	460.14
1006.37	460.502
1006.65	460.981
1006.94	461.601
1007.22	461.225
1007.5	461.054
1007.78	461.051
1008.06	461.615
1008.35	462.169
1008.63	462.705
1008.91	463.046
1009.19	463.078
1009.47	462.644
1009.75	461.647
1010.04	460.637
1010.32	459.435
1010.6	457.955
1010.88	456.518
1011.16	455.194
1011.45	454.126
1011.73	453.411
1012.01	453.181
1012.29	453.327
1012.57	454.044
1012.85	455.034
1013.14	456.15
1013.42	457.339
1013.7	457.767
1013.98	458.594
1014.26	459.329
1014.55	459.608
1014.83	459.733
1015.11	459.679
1015.39	459.683
1015.67	459.82
1015.95	460.004
1016.23	460.228
1016.52	460.361
1016.8	460.372
1017.08	460.237
1017.36	459.97
1017.64	459.436
1017.92	458.698
1018.2	457.749
1018.49	456.296
1018.77	454.574
1019.05	452.809
1019.33	451.262
1019.61	450.049
1019.89	450.067
1020.18	450.67
1020.46	451.618
1020.74	452.708
1021.02	454.066
1021.3	454.866
1021.58	455.601
1021.86	456.283
1022.14	456.944
1022.43	456.872
1022.71	456.475
1022.99	455.967
1023.27	455.421
1023.55	454.795
1023.83	454.134
1024.11	453.534
1024.39	452.795
1024.68	452.089
1024.96	451.394
1025.24	450.817
1025.52	450.382
1025.8	450.194
1026.08	450.165
1026.36	451.446
1026.64	453.148
1026.92	454.716
1027.2	455.487
1027.48	456.148
1027.77	456.524
1028.05	454.194
1028.33	448.619
1028.61	441.175
1028.89	430.686
