#Acq. time (s)=	10
#Accumulations=	2
#Range (cm-¹)=	100...4000
#Windows=	1
#Auto scanning=	Off
#Autofocus=	Off
#Macrospot=	Off
#AutoExposure=	Off
#Spike filter=	Multiple accum.
#Delay time (s)=	2
#Binning=	1
#Readout mode=	Signal
#DeNoise=	Standard
#ICS correction=	On
#Dark correction=	Off
#Inst. Process=	Off
#Detector Gain=	Best Dynamic
#Detector ADC=	50 kHz HS
#Detector temperature (°C)=	-60.09
#Instrument=	LabRAM HR Evol
#Detector=	SIN-EM FIVIS
#Objective=	x100_VIS
#Grating=	150 (500nm)
#ND Filter=	10%
#Laser=	633nm_Edge
#Hole=	30.0125
#Temperature=	0
#Range=	Visible
#StageXY=	75x50mm Scan+
#StageZ=	Z motor
#X (µm)=	0
#Y (µm)=	0
#Z (µm)=	-2.5
#Full time(s)=	24
#Project=	20_10_27
#Sample=	BU19TS
#Site=	
#Title=	BU19TS-Coltan2-overgrowth_150 (500nm)_633nm_Edge_10%_x100_VIS_H30um_10sX2
#Remark=	
#Date=	27.10.2020 16:57
#Acquired=	27.10.2020 16:57:36
100.764	64.4815
104.022	66.5464
107.281	68.0566
110.536	71.4482
113.791	78.9681
117.044	85.0365
120.297	91.4547
123.546	103.258
126.797	113.669
130.044	122.069
133.291	125.486
136.536	123.793
139.78	118.123
143.022	109.236
146.264	96.5166
149.503	86.5659
152.741	78.0423
155.979	77.7106
159.214	80.4902
162.449	83.7835
165.682	85.9538
168.914	89.2897
172.144	91.9137
175.374	92.83
178.601	91.7737
181.827	88.9268
185.053	84.9655
188.276	80.6754
191.499	78.6613
194.719	80.5032
197.939	85.1111
201.158	97.2249
204.374	99.6068
207.591	100.918
210.805	98.8397
214.017	89.5271
217.23	85.3742
220.44	82.6813
223.648	79.5373
226.857	81.9366
230.063	84.8976
233.267	88.9057
236.472	95.2905
239.674	102.252
242.874	112.082
246.075	122.087
249.273	131.311
252.47	140.91
255.667	145.932
258.861	147.178
262.053	155.385
265.246	182.664
268.436	192.904
271.625	203.718
274.813	213.421
278	219.249
281.185	199.83
284.369	177.4
287.552	156.666
290.733	144.226
293.913	135.878
297.091	129.824
300.27	126.005
303.445	122.898
306.62	119.952
309.793	117.48
312.965	115.093
316.137	112.175
319.306	108.505
322.474	105.051
325.64	100.934
328.806	97.3112
331.971	92.871
335.134	88.9946
338.295	85.7169
341.456	82.9334
344.614	79.5272
347.773	77.9462
350.93	76.81
354.085	76.5781
357.238	75.7884
360.391	76.2048
363.542	76.7119
366.692	78.156
369.842	79.9853
372.989	82.2692
376.135	84.8285
379.28	87.3591
382.423	90.0227
385.565	93.5914
388.706	96.4106
391.846	98.9019
394.984	99.7433
398.123	99.8936
401.258	98.6205
404.393	96.5128
407.526	91.8152
410.658	89.0836
413.789	86.7756
416.918	85.0469
420.046	83.9346
423.173	84.5746
426.299	85.9139
429.423	86.0874
432.546	87.8519
435.668	89.9877
438.788	92.156
441.907	94.3351
445.025	96.5036
448.142	98.6489
451.257	100.775
454.372	102.846
457.484	104.926
460.596	106.717
463.706	109.361
466.816	112.376
469.923	115.568
473.03	118.758
476.135	122.004
479.239	125.668
482.342	129.362
485.444	132.059
488.544	133.79
491.643	135.167
494.741	135.979
497.837	136.539
500.933	136.896
504.027	137.134
507.12	136.797
510.21	135.575
513.3	133.563
516.389	134.014
519.477	140.591
522.563	146.584
525.649	156.469
528.733	157.816
531.815	157.869
534.897	156.896
537.976	150.412
541.055	141.984
544.133	133.612
547.209	126.904
550.285	122.159
553.359	118.988
556.43	114.866
559.502	110.931
562.572	108.279
565.641	106.672
568.709	105.461
571.776	104.515
574.84	103.787
577.904	103.763
580.967	104.044
584.029	104.823
587.09	106.107
590.147	107.659
593.205	109.779
596.262	111.75
599.318	113.983
602.371	116.691
605.424	120.639
608.476	124.629
611.527	128.96
614.575	133.973
617.623	139.863
620.67	147.296
623.716	155.263
626.759	165.487
629.802	178.166
632.844	187.78
635.884	189.334
638.924	184.714
641.962	178.165
644.998	168.348
648.034	158.794
651.069	147.99
654.101	136.379
657.133	128.394
660.165	121.742
663.193	115.757
666.222	110.581
669.25	106.36
672.274	103.622
675.3	101.204
678.324	99.1844
681.345	97.2351
684.366	95.9977
687.385	94.9731
690.404	94.6944
693.422	95.1264
696.438	95.5998
699.453	96.1072
702.466	96.6196
705.479	97.1114
708.491	97.5706
711.5	97.8222
714.51	98.2397
717.516	98.7138
720.523	98.9751
723.528	99.2146
726.533	99.3725
729.536	99.4945
732.537	99.5957
735.538	99.6538
738.537	99.6823
741.535	99.6869
744.531	99.6584
747.528	99.6161
750.521	99.5413
753.515	99.4637
756.507	99.3674
759.498	98.9405
762.487	97.9073
765.476	97.1807
768.463	96.6618
771.45	96.3008
774.434	96.094
777.417	96.0355
780.4	96.0148
783.381	95.6495
786.362	95.3283
789.34	95.7488
792.319	96.9347
795.294	98.8425
798.269	102.064
801.244	105.18
804.217	109.375
807.189	114.642
810.159	120.174
813.128	126.595
816.097	133.849
819.064	141.965
822.03	150.056
824.995	163.27
827.958	173.251
830.921	183.591
833.881	193.846
836.841	205.418
839.801	217.862
842.758	231.428
845.714	249.824
848.67	276.6
851.624	308.021
854.576	382.349
857.529	477.327
860.479	559.2
863.428	679.21
866.377	866.055
869.324	1103.87
872.269	1437.5
875.215	1679.82
878.158	1794.39
881.1	1616.47
884.041	1231.95
886.982	861.353
889.92	562.228
892.858	392.493
895.794	301.263
898.73	234.823
901.664	192.367
904.597	160.827
907.529	142.92
910.459	129.607
913.39	119.152
916.318	110.443
919.245	102.572
922.171	96.2658
925.095	91.5256
928.02	87.9741
930.943	84.0271
933.864	81.2991
936.784	79.4215
939.703	77.8212
942.62	75.1468
945.539	74.1511
948.454	73.4215
951.368	72.8521
954.282	71.8914
957.194	70.9217
960.105	69.9789
963.014	69.1623
965.924	68.3891
968.832	67.4714
971.738	66.857
974.643	66.303
977.547	65.7742
980.45	65.2943
983.352	64.846
986.253	64.422
989.152	64.0354
992.051	63.66
994.948	63.3064
997.844	62.8822
1000.74	62.5134
1003.63	62.2015
1006.53	62.1276
1009.42	61.8419
1012.31	61.6105
1015.2	61.3386
1018.09	61.0922
1020.97	60.8591
1023.86	60.6124
1026.74	60.268
1029.63	59.9867
1032.51	59.7109
1035.39	59.4804
1038.27	58.769
1041.15	58.1221
1044.03	57.5411
1046.91	57.0767
1049.78	56.7085
1052.66	56.5517
1055.53	56.5061
1058.4	56.5627
1061.27	56.6742
1064.14	56.8264
1067.01	56.9883
1069.88	57.1596
1072.75	57.3443
1075.61	57.5456
1078.48	57.6462
1081.34	57.7239
1084.2	57.7406
1087.06	57.802
1089.92	57.8243
1092.78	57.9003
1095.64	57.6912
1098.5	57.4245
1101.35	57.0508
1104.21	56.7554
1107.06	56.6461
1109.91	56.3037
1112.77	55.9572
1115.62	55.602
1118.46	55.1555
1121.31	54.9627
1124.16	54.22
1127	53.9954
1129.85	53.7529
1132.69	53.5205
1135.53	53.3085
1138.37	53.1761
1141.22	53.1448
1144.05	53.1988
1146.89	52.9483
1149.73	52.6665
1152.56	52.748
1155.4	53.1644
1158.23	54.4766
1161.06	54.3692
1163.9	54.0165
1166.73	53.6658
1169.56	53.2852
1172.38	52.9258
1175.21	52.5454
1178.04	52.1948
1180.86	51.8246
1183.68	51.4846
1186.51	51.1279
1189.33	50.787
1192.15	50.4438
1194.97	50.1055
1197.78	49.7785
1200.6	49.4512
1203.42	49.1352
1206.23	48.7989
1209.04	48.5269
1211.86	48.2379
1214.67	48.0001
1217.48	47.7475
1220.29	47.3042
1223.1	47.1759
1225.9	47.065
1228.71	46.9872
1231.51	46.9119
1234.32	46.8738
1237.12	46.8287
1239.92	46.8203
1242.72	46.7988
1245.52	46.8097
1248.32	46.7616
1251.12	46.1662
1253.92	45.6206
1256.71	45.0778
1259.5	44.7557
1262.3	44.4329
1265.09	44.2037
1267.88	44.0212
1270.67	43.8032
1273.46	43.7564
1276.25	43.541
1279.03	43.6981
1281.82	43.8995
1284.6	44.1183
1287.39	44.3944
1290.17	44.6994
1292.95	45.0012
1295.73	45.2881
1298.51	45.4905
1301.29	45.3423
1304.06	45.1756
1306.84	45.024
1309.61	44.8542
1312.39	44.7008
1315.16	44.5298
1317.93	44.3765
1320.7	44.2067
1323.47	44.0552
1326.24	43.8888
1329.01	43.7374
1331.77	43.5772
1334.54	43.4289
1337.3	43.285
1340.06	43.1486
1342.83	43.0032
1345.59	42.8764
1348.35	42.7845
1351.1	42.6837
1353.86	42.6268
1356.62	42.3789
1359.37	42.4077
1362.13	42.4665
1364.88	42.5338
1367.63	42.6236
1370.39	42.5677
1373.14	42.485
1375.89	42.4386
1378.63	42.3725
1381.38	42.3385
1384.13	42.2941
1386.87	42.2747
1389.62	42.2458
1392.36	42.2584
1395.1	42.2558
1397.84	42.2772
1400.58	42.3138
1403.32	42.379
1406.06	42.3777
1408.79	42.5782
1411.53	42.7794
1414.26	43.0075
1417	43.2559
1419.73	43.6737
1422.46	43.898
1425.19	43.8214
1427.92	43.7464
1430.65	43.6681
1433.38	43.5894
1436.1	43.5129
1438.83	43.4338
1441.55	43.3736
1444.27	43.2954
1447	43.2383
1449.72	43.1624
1452.44	43.1071
1455.16	43.0347
1457.87	42.9796
1460.59	42.9873
1463.31	42.9486
1466.02	42.9165
1468.73	42.8734
1471.45	42.8362
1474.16	42.783
1476.87	42.7304
1479.58	42.6671
1482.29	42.6073
1484.99	42.5333
1487.7	42.4583
1490.41	42.3773
1493.11	42.2865
1495.81	42.1979
1498.52	42.0976
1501.22	41.9914
1503.92	41.8793
1506.62	41.7617
1509.32	41.5914
1512.01	41.4026
1514.71	41.1918
1517.4	40.9795
1520.1	40.7358
1522.79	40.5443
1525.48	40.3583
1528.17	40.1818
1530.86	40.0225
1533.55	39.8658
1536.24	39.7372
1538.93	39.6061
1541.61	39.4756
1544.3	39.3791
1546.98	39.2718
1549.67	39.2683
1552.35	39.3194
1555.03	39.3374
1557.71	39.2196
1560.39	39.125
1563.07	39.0177
1565.74	38.882
1568.42	38.7748
1571.09	38.7007
1573.77	38.5682
1576.44	38.5135
1579.11	38.483
1581.78	38.4577
1584.45	38.4506
1587.12	38.4567
1589.79	38.4831
1592.45	38.527
1595.12	38.5899
1597.78	38.6508
1600.45	38.3875
1603.11	38.1468
1605.77	37.915
1608.43	37.7225
1611.09	37.6982
1613.75	37.6208
1616.41	37.5644
1619.07	37.5216
1621.72	37.4782
1624.38	37.4611
1627.03	37.4487
1629.68	37.4523
1632.33	37.4658
1634.98	37.4867
1637.63	37.5159
1640.28	37.5397
1642.93	37.5503
1645.58	37.6226
1648.22	37.7579
1650.87	37.8293
1653.51	37.9283
1656.15	38.019
1658.8	38.135
1661.44	38.244
1664.08	38.3759
1666.71	38.5018
1669.35	38.6482
1671.99	38.7894
1674.62	38.9489
1677.26	39.1034
1679.89	39.121
1682.53	38.9754
1685.16	38.8429
1687.79	38.6763
1690.42	38.6631
1693.05	38.6235
1695.67	38.699
1698.3	39.1708
1700.93	39.7551
1703.55	40.2723
1706.18	40.9027
1708.8	41.2213
1711.42	41.4114
1714.04	41.6027
1716.66	41.7912
1719.28	41.9768
1721.9	42.1602
1724.51	42.3412
1727.13	42.5214
1729.75	42.6956
1732.36	42.8671
1734.97	43.0304
1737.58	43.1882
1740.2	43.3332
1742.81	43.3341
1745.42	43.3604
1748.02	42.8204
1750.63	42.0763
1753.24	41.6636
1755.84	41.0862
1758.45	40.3133
1761.05	39.2817
1763.65	37.943
1766.25	35.9456
1768.85	34.1233
1771.45	32.93
1774.05	31.9245
1776.65	31.422
1779.24	31.6239
1781.84	31.9226
1784.44	31.5658
1787.03	31.1967
1789.62	30.8973
1792.21	30.7652
1794.8	30.7595
1797.39	30.8677
1799.98	31.0667
1802.57	31.3485
1805.16	31.7085
1807.74	32.1384
1810.33	32.6322
1812.91	32.829
1815.49	32.455
1818.08	32.008
1820.66	31.4818
1823.24	30.8897
1825.82	30.2252
1828.39	29.512
1830.97	29.0488
1833.55	28.662
1836.12	28.3664
1838.7	28.1406
1841.27	26.7838
1843.84	27.298
1846.42	27.9392
1848.99	28.5878
1851.56	29.2035
1854.12	29.768
1856.69	30.3351
1859.26	30.3715
1861.82	30.0212
1864.39	29.7
1866.95	29.4587
1869.52	29.2174
1872.08	29.0353
1874.64	28.9644
1877.2	28.9444
1879.76	28.9685
1882.32	29.0021
1884.87	29.0683
1887.43	29.1413
1889.98	29.2353
1892.54	29.3351
1895.09	29.4454
1897.64	29.3301
1900.2	29.1899
1902.75	29.0774
1905.3	28.9528
1907.85	28.8485
1910.39	28.7489
1912.94	28.6671
1915.49	28.5905
1918.03	28.5315
1920.57	28.4692
1923.12	28.4212
1925.66	28.3719
1928.2	28.3464
1930.74	28.3172
1933.28	28.2942
1935.82	28.2707
1938.36	28.251
1940.89	28.2298
1943.43	28.2098
1945.96	28.1772
1948.5	28.1593
1951.03	28.129
1953.56	28.1114
1956.09	28.0825
1958.62	28.0622
1961.15	28.0342
1963.68	28.0091
1966.21	27.9815
1968.73	27.9505
1971.26	27.9066
1973.78	27.8643
1976.31	27.8144
1978.83	27.7546
1981.35	27.6901
1983.87	27.6387
1986.39	27.568
1988.91	27.5234
1991.43	27.457
1993.94	27.2768
1996.46	27.2692
1998.98	27.2914
2001.49	27.3067
2004	27.2498
2006.52	27.1703
2009.03	27.1047
2011.54	27.0542
2014.05	27.0293
2016.56	27.0084
2019.06	27.0068
2021.57	27.0159
2024.08	27.088
2026.58	27.1281
2029.08	27.1692
2031.59	27.1998
2034.09	27.2455
2036.59	27.2847
2039.09	27.333
2041.59	27.3899
2044.09	27.4394
2046.59	27.4979
2049.08	27.5445
2051.58	27.5974
2054.07	27.6357
2056.57	27.6768
2059.06	27.6621
2061.55	27.5444
2064.05	27.4166
2066.54	27.239
2069.02	27.1362
2071.51	27.0378
2074	26.9518
2076.49	26.8633
2078.97	26.7816
2081.46	26.7098
2083.94	26.8161
2086.43	26.7928
2088.91	26.7713
2091.39	26.8223
2093.87	26.8051
2096.35	26.7735
2098.83	26.7619
2101.3	26.7523
2103.78	26.7572
2106.26	26.7368
2108.73	26.7151
2111.21	26.689
2113.68	26.6381
2116.15	26.3991
2118.62	26.3094
2121.09	26.2166
2123.56	26.1222
2126.03	26.0354
2128.5	25.9486
2130.97	25.8945
2133.43	25.8491
2135.9	25.8685
2138.36	25.8361
2140.83	25.7728
2143.29	25.7175
2145.75	25.6841
2148.21	25.6518
2150.67	25.6549
2153.13	25.6523
2155.59	25.6447
2158.04	25.6132
2160.5	25.6066
2162.95	25.465
2165.41	25.67
2167.86	25.933
2170.31	26.5435
2172.77	26.9662
2175.22	27.4107
2177.67	27.8311
2180.12	28.2674
2182.56	28.6807
2185.01	29.1088
2187.46	29.4976
2189.9	29.4468
2192.35	29.2306
2194.79	28.9926
2197.23	28.7068
2199.68	28.0545
2202.12	27.2903
2204.56	26.5638
2207	25.9214
2209.43	25.8315
2211.87	25.7143
2214.31	25.6853
2216.74	25.596
2219.18	25.5315
2221.61	25.4337
2224.05	25.4143
2226.48	25.4006
2228.91	25.4315
2231.34	25.4999
2233.77	25.5864
2236.2	25.6679
2238.63	25.7985
2241.05	25.9225
2243.48	26.0427
2245.9	26.1595
2248.33	26.1045
2250.75	26.0697
2253.17	26.095
2255.6	26.162
2258.02	26.2803
2260.44	26.3314
2262.86	26.0742
2265.27	25.7852
2267.69	25.6517
2270.11	25.5565
2272.52	25.4975
2274.94	25.4551
2277.35	25.3693
2279.76	25.3014
2282.18	25.2655
2284.59	25.2647
2287	25.3036
2289.41	25.1671
2291.82	24.9963
2294.23	24.6715
2296.63	24.5571
2299.04	24.5804
2301.44	24.6374
2303.85	25.0199
2306.25	25.2083
2308.65	25.4458
2311.05	25.6874
2313.46	25.5683
2315.86	25.1716
2318.25	24.7921
2320.65	24.4384
2323.05	24.1102
2325.45	23.8094
2327.84	23.5409
2330.24	23.3065
2332.63	23.1089
2335.03	22.9518
2337.42	22.8121
2339.81	22.7277
2342.2	22.7164
2344.59	22.6537
2346.98	22.8536
2349.37	23.0681
2351.75	23.3227
2354.14	23.6033
2356.52	23.9083
2358.91	24.2368
2361.29	24.5873
2363.67	24.9459
2366.06	25.3053
2368.44	25.2639
2370.82	25.0543
2373.2	24.5737
2375.58	24.5129
2377.95	24.4648
2380.33	24.4507
2382.71	24.6747
2385.08	24.9908
2387.46	25.1356
2389.83	25.322
2392.2	25.5073
2394.57	25.7072
2396.95	25.8042
2399.32	25.9049
2401.68	25.9435
2404.05	26.08
2406.42	26.1516
2408.79	25.9817
2411.15	25.9576
2413.52	25.9185
2415.88	25.8747
2418.25	25.8184
2420.61	25.7497
2422.97	25.4667
2425.33	25.1106
2427.69	24.7715
2430.05	24.4646
2432.41	24.1908
2434.77	23.8168
2437.12	23.796
2439.48	23.7865
2441.83	24.0397
2444.19	24.241
2446.54	24.472
2448.89	24.7708
2451.24	24.945
2453.6	25.1172
2455.95	25.2678
2458.29	25.4036
2460.64	25.5227
2462.99	25.6139
2465.34	25.5197
2467.68	25.4733
2470.03	25.4169
2472.37	25.3521
2474.72	25.2926
2477.06	25.2384
2479.4	25.132
2481.74	24.972
2484.08	24.8158
2486.42	24.6412
2488.76	24.5023
2491.1	24.3023
2493.43	24.1348
2495.77	24.108
2498.1	24.1134
2500.44	24.3247
2502.77	24.4882
2505.1	24.6011
2507.43	24.7529
2509.76	24.8876
2512.1	25.043
2514.42	25.096
2516.75	24.9578
2519.08	24.8117
2521.41	24.3083
2523.73	24.0945
2526.06	23.7889
2528.38	23.6226
2530.71	23.4429
2533.03	23.2363
2535.35	23.2596
2537.67	23.3401
2539.99	23.7657
2542.31	23.9806
2544.63	24.272
2546.95	24.5559
2549.26	24.8453
2551.58	25.1149
2553.89	25.1317
2556.21	25.1171
2558.52	24.9533
2560.84	24.7225
2563.15	24.5651
2565.46	24.2968
2567.77	24.0221
2570.08	23.8901
2572.39	23.7368
2574.7	23.5675
2577	23.4786
2579.31	23.3685
2581.61	23.3596
2583.92	23.5769
2586.22	23.7368
2588.53	23.9274
2590.83	24.0369
2593.13	24.1358
2595.43	24.2234
2597.73	24.3172
2600.03	24.3993
2602.33	24.4832
2604.62	24.5689
2606.92	24.6352
2609.22	24.7112
2611.51	24.6414
2613.81	24.5288
2616.1	23.8392
2618.39	22.9104
2620.68	22.2063
2622.97	22.0637
2625.26	22.4317
2627.55	22.8141
2629.84	23.2474
2632.13	23.7775
2634.42	24.549
2636.7	24.9334
2638.99	24.9911
2641.27	25.0441
2643.56	25.1061
2645.84	25.1557
2648.12	25.2181
2650.4	25.2618
2652.68	25.3179
2654.96	25.3629
2657.24	25.399
2659.52	25.4731
2661.8	25.382
2664.07	25.2372
2666.35	25.0625
2668.63	24.8913
2670.9	24.7671
2673.17	24.6584
2675.45	24.5132
2677.72	24.2973
2679.99	23.9698
2682.26	23.5622
2684.53	23.1923
2686.8	22.8512
2689.06	22.565
2691.33	22.3277
2693.6	22.1213
2695.86	21.9515
2698.13	21.814
2700.39	21.7145
2702.66	21.4886
2704.92	21.5977
2707.18	21.722
2709.44	21.87
2711.7	22.0333
2713.96	22.213
2716.22	22.4087
2718.47	22.606
2720.73	22.8261
2722.99	23.0044
2725.24	23.1961
2727.5	23.3519
2729.75	23.5973
2732	23.8272
2734.26	23.9226
2736.51	23.9815
2738.76	24.0497
2741.01	24.079
2743.25	24.0426
2745.5	23.9814
2747.75	23.9346
2750	23.8869
2752.24	23.7093
2754.49	23.6502
2756.73	23.6012
2758.98	23.5655
2761.22	23.5356
2763.46	23.5161
2765.7	23.5083
2767.94	23.5091
2770.18	23.5192
2772.42	23.5394
2774.66	23.566
2776.9	23.6039
2779.13	23.6449
2781.37	23.6977
2783.6	23.7501
2785.84	23.8139
2788.07	23.8738
2790.3	23.9402
2792.53	24.0025
2794.77	23.9695
2797	23.8652
2799.23	23.7737
2801.45	23.6237
2803.68	23.4658
2805.91	23.3867
2808.14	23.3062
2810.36	23.2365
2812.59	23.179
2814.81	23.1349
2817.03	23.105
2819.26	23.092
2821.48	23.0856
2823.7	23.0904
2825.92	23.2048
2828.14	23.2521
2830.36	23.2832
2832.57	23.3391
2834.79	23.3829
2837.01	23.4454
2839.22	23.5155
2841.44	23.584
2843.65	23.6637
2845.87	23.7278
2848.08	23.793
2850.29	23.8603
2852.5	23.9254
2854.71	23.9946
2856.92	24.0587
2859.13	24.1287
2861.34	24.1294
2863.55	24.1273
2865.75	24.132
2867.96	24.107
2870.16	24.1409
2872.37	24.2012
2874.57	24.2509
2876.77	24.3243
2878.98	24.3884
2881.18	24.4723
2883.38	24.5217
2885.58	24.5257
2887.78	24.5358
2889.97	24.5329
2892.17	24.5361
2894.37	24.5267
2896.56	24.5194
2898.76	24.5051
2900.95	24.492
2903.15	24.4734
2905.34	24.4546
2907.53	24.4018
2909.72	24.3759
2911.91	24.3502
2914.1	24.3228
2916.29	24.3017
2918.48	24.17
2920.67	23.8285
2922.86	23.4654
2925.04	23.1442
2927.23	22.8011
2929.41	22.5537
2931.6	22.4307
2933.78	24.0896
2935.96	24.3606
2938.14	24.4155
2940.32	24.4878
2942.5	24.5415
2944.68	24.6226
2946.86	24.6907
2949.04	24.7384
2951.22	24.9188
2953.39	24.884
2955.57	24.8509
2957.74	24.6564
2959.92	24.0465
2962.09	23.7625
2964.26	23.6402
2966.44	23.726
2968.61	23.6032
2970.78	23.4859
2972.95	23.3884
2975.12	23.3165
2977.28	23.2512
2979.45	23.2206
2981.62	23.3517
2983.79	23.4155
2985.95	23.4556
2988.11	23.4939
2990.28	23.5427
2992.44	23.5775
2994.6	23.6467
2996.77	23.6608
2998.93	23.7188
3001.09	23.7163
3003.25	23.7637
3005.4	23.8252
3007.56	23.8997
3009.72	23.9915
3011.88	24.0783
3014.03	24.1911
3016.19	24.291
3018.34	24.3984
3020.49	24.499
3022.65	24.5319
3024.8	24.3484
3026.95	24.4618
3029.1	24.6069
3031.25	24.7055
3033.4	24.8058
3035.55	24.8592
3037.7	24.9178
3039.84	24.9572
3041.99	24.9514
3044.13	24.9556
3046.28	24.9157
3048.42	25.0502
3050.57	24.9505
3052.71	24.8204
3054.85	24.7032
3056.99	24.565
3059.13	24.4302
3061.27	24.2886
3063.41	24.1469
3065.55	24.0081
3067.69	23.8674
3069.82	23.7377
3071.96	23.6051
3074.09	23.4909
3076.23	23.3516
3078.36	23.2388
3080.5	23.1774
3082.63	23.0896
3084.76	23.0676
3086.89	22.8506
3089.02	22.8416
3091.15	22.9218
3093.28	23.0413
3095.41	23.1583
3097.53	23.3206
3099.66	23.5697
3101.79	23.8408
3103.91	24.0448
3106.04	24.2612
3108.16	24.4722
3110.28	24.6957
3112.41	24.8924
3114.53	25.1032
3116.65	25.3063
3118.77	25.4853
3120.89	25.6736
3123.01	25.8391
3125.12	26.0021
3127.24	25.9465
3129.36	25.9191
3131.47	25.8831
3133.59	25.8432
3135.7	25.8039
3137.82	25.7744
3139.93	25.7374
3142.04	25.7053
3144.15	25.676
3146.27	25.6471
3148.38	25.6312
3150.49	25.6094
3152.59	25.6077
3154.7	25.5957
3156.81	25.6093
3158.92	25.6079
3161.02	25.7033
3163.13	25.6365
3165.23	25.513
3167.33	25.3861
3169.44	25.2627
3171.54	25.1359
3173.64	25.0177
3175.74	24.8986
3177.84	24.8002
3179.94	24.7039
3182.04	24.6348
3184.14	24.5722
3186.24	24.5401
3188.33	24.5188
3190.43	24.5283
3192.52	24.5922
3194.62	24.6401
3196.71	24.8524
3198.81	25.0181
3200.9	25.2833
3202.99	25.5761
3205.08	25.8522
3207.17	26.1495
3209.26	26.4301
3211.35	26.4461
3213.44	26.4365
3215.53	26.4403
3217.61	26.4191
3219.7	26.406
3221.79	26.3743
3223.87	26.3416
3225.95	26.3033
3228.04	26.2572
3230.12	26.1842
3232.2	26.155
3234.28	25.9638
3236.36	25.9797
3238.44	26.005
3240.52	25.8474
3242.6	25.7685
3244.68	25.7098
3246.76	25.8573
3248.83	26
3250.91	26.1164
3252.98	26.2444
3255.06	26.3674
3257.13	26.4976
3259.2	26.6376
3261.28	26.8164
3263.35	26.9002
3265.42	26.9397
3267.49	26.9854
3269.56	27.0044
3271.63	26.8877
3273.7	26.8645
3275.76	26.8383
3277.83	26.7543
3279.9	26.615
3281.96	26.4777
3284.03	26.41
3286.09	26.1412
3288.15	26.2767
3290.22	26.4024
3292.28	26.5793
3294.34	26.948
3296.4	27.0526
3298.46	27.0898
3300.52	27.1222
3302.58	27.1614
3304.64	27.1988
3306.69	27.2411
3308.75	27.2862
3310.8	27.3422
3312.86	27.3974
3314.91	27.4654
3316.97	27.5293
3319.02	27.6068
3321.07	27.6893
3323.12	27.7755
3325.18	27.8639
3327.23	27.9529
3329.28	28.041
3331.32	28.1263
3333.37	28.2078
3335.42	28.1637
3337.47	28.1494
3339.51	28.1294
3341.56	28.0827
3343.6	28.0347
3345.65	28.0018
3347.69	27.9374
3349.73	27.8797
3351.78	27.7668
3353.82	27.6891
3355.86	27.5729
3357.9	27.4808
3359.94	27.3634
3361.98	27.249
3364.02	27.1444
3366.05	27.0326
3368.09	26.9482
3370.12	26.861
3372.16	26.8095
3374.19	26.7683
3376.23	26.7625
3378.26	26.798
3380.29	26.845
3382.33	27.3426
3384.36	27.6555
3386.39	28.031
3388.42	28.0396
3390.45	27.9901
3392.48	27.9565
3394.5	27.9102
3396.53	27.8793
3398.56	27.8354
3400.58	27.5
3402.61	26.4688
3404.63	25.7449
3406.66	24.9789
3408.68	24.8599
3410.7	25.4926
3412.73	26.6095
3414.75	27.4085
3416.77	27.587
3418.79	27.4837
3420.81	27.5958
3422.83	27.7016
3424.84	27.8404
3426.86	27.9903
3428.88	28.4525
3430.89	28.155
3432.91	27.8593
3434.92	27.6222
3436.94	27.4448
3438.95	27.3185
3440.96	27.1567
3442.98	26.951
3444.99	26.7688
3447	26.6832
3449.01	26.6364
3451.02	26.0634
3453.03	25.5376
3455.03	25.0951
3457.04	24.9921
3459.05	24.997
3461.05	25.5347
3463.06	26.1715
3465.06	26.8287
3467.07	27.539
3469.07	28.181
3471.07	28.5165
3473.08	28.2267
3475.08	28.0766
3477.08	28.138
3479.08	28.2094
3481.08	28.0658
3483.08	28.0367
3485.07	28.1716
3487.07	28.1207
3489.07	28.2819
3491.07	28.4483
3493.06	28.546
3495.06	28.5634
3497.05	28.51
3499.04	28.3797
3501.04	28.1781
3503.03	27.9055
3505.02	27.5734
3507.01	27.265
3509	27.0746
3510.99	27.032
3512.98	27.1837
3514.97	27.4257
3516.96	27.6961
3518.94	27.9441
3520.93	28.2197
3522.91	28.419
3524.9	28.5062
3526.88	28.3611
3528.87	28.2796
3530.85	28.1651
3532.83	28.1038
3534.82	28.08
3536.8	28.0956
3538.78	28.1184
3540.76	28.1076
3542.74	28.1565
3544.71	28.151
3546.69	28.2403
3548.67	28.3298
3550.65	28.4366
3552.62	28.545
3554.6	28.6384
3556.57	28.754
3558.55	28.8615
3560.52	28.9438
3562.49	29.0065
3564.47	29.0511
3566.44	29.075
3568.41	29.0751
3570.38	29.0422
3572.35	28.8262
3574.32	28.4901
3576.29	28.0619
3578.25	27.4858
3580.22	27.0345
3582.19	26.783
3584.15	26.6444
3586.12	27.5124
3588.08	28.2469
3590.05	29.5223
3592.01	30.0957
3593.97	30.3277
3595.93	30.1789
3597.89	30.1426
3599.85	30.2025
3601.81	30.3028
3603.77	30.1273
3605.73	29.8937
3607.69	29.9164
3609.65	29.9392
3611.61	29.7214
3613.56	29.6354
3615.52	29.5709
3617.47	29.4948
3619.43	29.3556
3621.38	29.1037
3623.33	28.8081
3625.28	28.4849
3627.24	28.1571
3629.19	27.8984
3631.14	28.0295
3633.09	27.7255
3635.04	27.5925
3636.99	26.5145
3638.93	26.2348
3640.88	25.9137
3642.83	25.7621
3644.77	26.6429
3646.72	27.6124
3648.66	28.6474
3650.61	29.5648
3652.55	30.3417
3654.49	30.9998
3656.44	31.3227
3658.38	30.9708
3660.32	30.5536
3662.26	30.2312
3664.2	29.9863
3666.14	29.833
3668.08	29.7751
3670.01	29.798
3671.95	29.8868
3673.89	29.8545
3675.82	29.6793
3677.76	29.2921
3679.69	29.3402
3681.63	29.4087
3683.56	29.4985
3685.5	29.631
3687.43	29.7897
3689.36	29.9399
3691.29	30.1303
3693.22	30.2335
3695.15	29.7823
3697.08	29.3255
3699.01	28.5001
3700.94	27.973
3702.86	27.5861
3704.79	27.448
3706.72	27.6462
3708.64	28.0357
3710.57	28.3667
3712.49	28.8474
3714.41	29.3888
3716.34	29.8732
3718.26	30.0394
3720.18	30.0887
3722.1	30.0241
3724.02	29.8593
3725.94	29.6906
3727.86	29.5207
3729.78	29.3505
3731.7	29.1893
3733.61	29.0296
3735.53	28.8747
3737.45	28.7243
3739.36	28.582
3741.28	28.5234
3743.19	28.4527
3745.11	28.3824
3747.02	28.321
3748.93	28.2798
3750.84	28.2496
3752.75	28.2486
3754.66	28.2424
3756.57	28.1824
3758.48	28.3623
3760.39	28.5917
3762.3	28.8401
3764.21	29.1261
3766.12	29.4345
3768.02	29.7834
3769.93	30.1423
3771.83	30.5017
3773.74	30.9676
3775.64	31.2732
3777.54	31.5249
3779.45	31.7947
3781.35	31.9552
3783.25	31.8609
3785.15	31.9841
3787.05	32.0312
3788.95	32.0862
3790.85	32.0472
3792.75	31.9158
3794.65	31.7766
3796.54	31.6262
3798.44	31.4698
3800.34	31.3092
3802.23	31.1435
3804.13	30.9793
3806.02	30.8157
3807.91	30.6517
3809.81	30.4925
3811.7	30.2799
3813.59	30.2266
3815.48	30.2052
3817.37	30.2109
3819.26	30.234
3821.15	30.003
3823.04	29.8254
3824.93	29.7355
3826.82	30.0547
3828.7	30.3282
3830.59	30.645
3832.47	30.9769
3834.36	31.3363
3836.24	31.4314
3838.13	31.5177
3840.01	31.5966
3841.89	31.6698
3843.78	31.7355
3845.66	31.5932
3847.54	31.3631
3849.42	31.4398
3851.3	31.5242
3853.18	31.6157
3855.06	31.7158
3856.93	31.8177
3858.81	31.937
3860.69	32.2107
3862.56	32.2676
3864.44	32.1888
3866.31	32.1099
3868.19	32.036
3870.06	31.9599
3871.93	32.0096
3873.81	32.0388
3875.68	32.0673
3877.55	31.9249
3879.42	31.8003
3881.29	31.6624
3883.16	31.5372
3885.03	31.4168
3886.9	31.3035
3888.77	31.1981
3890.63	31.098
3892.5	31.0185
3894.37	30.9729
3896.23	30.9638
3898.1	30.9247
3899.96	31.0668
3901.82	31.2418
3903.69	31.4357
3905.55	31.6303
3907.41	31.8654
3909.27	32.0624
3911.13	32.0561
3912.99	32.0023
3914.85	31.9928
3916.71	31.9536
3918.57	31.9516
3920.43	31.9299
3922.28	31.9276
3924.14	31.982
3926	31.9848
3927.85	31.9924
3929.71	31.8189
3931.56	31.5356
3933.41	31.2948
3935.27	31.0628
3937.12	30.9035
3938.97	30.7439
3940.82	30.6763
3942.67	30.921
3944.52	30.823
3946.37	30.7246
3948.22	30.7234
3950.07	30.7995
3951.92	31.5348
3953.77	32.1465
3955.61	32.9104
3957.46	33.7946
3959.3	34.7278
3961.15	35.6576
3962.99	35.5353
3964.84	35.5456
3966.68	35.3858
3968.52	35.0225
3970.36	34.0212
3972.2	33.0176
3974.05	32.0077
3975.89	31.7488
3977.73	31.4186
3979.56	30.9972
3981.4	30.766
3983.24	30.5807
3985.08	30.4545
3986.92	30.2565
3988.75	30.0946
3990.59	29.9852
3992.42	29.9219
3994.26	29.888
3996.09	29.8246
3997.92	29.7215
3999.76	29.7091
