#Acq. time (s)=	10
#Accumulations=	2
#Range (cm-¹)=	100...4000
#Windows=	1
#Auto scanning=	Off
#Autofocus=	Off
#Macrospot=	Off
#AutoExposure=	Off
#Spike filter=	Multiple accum.
#Delay time (s)=	2
#Binning=	1
#Readout mode=	Signal
#DeNoise=	Standard
#ICS correction=	On
#Dark correction=	Off
#Inst. Process=	Off
#Detector Gain=	Best Dynamic
#Detector ADC=	50 kHz HS
#Detector temperature (°C)=	-60.09
#Instrument=	LabRAM HR Evol
#Detector=	SIN-EM FIVIS
#Objective=	x100_VIS
#Grating=	150 (500nm)
#ND Filter=	100%
#Laser=	633nm_Edge
#Hole=	30.0125
#Temperature=	0
#Range=	Visible
#StageXY=	75x50mm Scan+
#StageZ=	Z motor
#X (µm)=	0
#Y (µm)=	0
#Z (µm)=	52.9
#Full time(s)=	25
#Project=	20_10_27
#Sample=	BU24
#Site=	
#Title=	BU24-Ore4-prism_top_150 (500nm)_633nm_Edge_100%_x100_VIS_H30um_10sX2
#Remark=	
#Date=	27.10.2020 19:16
#Acquired=	27.10.2020 19:16:34
100.764	761.535
104.022	785.036
107.281	801.583
110.536	822.5
113.791	857.25
117.044	889.11
120.297	905.397
123.546	914.298
126.797	908.086
130.044	899.631
133.291	862.74
136.536	808.498
139.78	749.41
143.022	698.389
146.264	650.161
149.503	615.118
152.741	595.784
155.979	579.156
159.214	565.254
162.449	555.1
165.682	547.696
168.914	542.714
172.144	540.105
175.374	538.871
178.601	539.368
181.827	539.095
185.053	540.2
188.276	536.441
191.499	533.823
194.719	530.903
197.939	529.823
201.158	524.44
204.374	522.184
207.591	519.891
210.805	516.502
214.017	513.417
217.23	510.549
220.44	507.892
223.648	504.986
226.857	502.784
230.063	500.545
233.267	498.724
236.472	497.63
239.674	496.974
242.874	496.452
246.075	496.783
249.273	496.106
252.47	494.723
255.667	493.491
258.861	492.704
262.053	492.487
265.246	492.492
268.436	492.97
271.625	494.382
274.813	496.58
278	498.125
281.185	499.393
284.369	499.929
287.552	498.433
290.733	497.506
293.913	494.759
297.091	491.714
300.27	487.85
303.445	483.667
306.62	482.314
309.793	476.919
312.965	470.909
316.137	465.262
319.306	459.55
322.474	452.306
325.64	447.147
328.806	442.792
331.971	439.705
335.134	437.565
338.295	436.775
341.456	436.727
344.614	438.34
347.773	440.168
350.93	441.09
354.085	440.829
357.238	441.254
360.391	441.563
363.542	441.69
366.692	441.629
369.842	442.109
372.989	441.149
376.135	439.85
379.28	438.592
382.423	437.857
385.565	437.673
388.706	437.497
391.846	437.569
394.984	437.171
398.123	436.838
401.258	435.908
404.393	434.796
407.526	433.217
410.658	429.686
413.789	425.882
416.918	421.843
420.046	417.365
423.173	413.04
426.299	408.989
429.423	404.835
432.546	401.234
435.668	397.771
438.788	394.396
441.907	391.175
445.025	388.329
448.142	385.62
451.257	383.513
454.372	382.086
457.484	380.033
460.596	377.531
463.706	374.862
466.816	372.322
469.923	369.862
473.03	367.835
476.135	365.446
479.239	362.81
482.342	360.178
485.444	357.485
488.544	354.561
491.643	352.017
494.741	349.503
497.837	347.184
500.933	345.179
504.027	342.928
507.12	340.998
510.21	338.946
513.3	337.231
516.389	336.391
519.477	335.654
522.563	335.455
525.649	335.903
528.733	336.046
531.815	336.654
534.897	337.147
537.976	337.19
541.055	337.223
544.133	336.948
547.209	336.995
550.285	336.968
553.359	336.475
556.43	336.355
559.502	335.987
562.572	335.228
565.641	333.868
568.709	333.169
571.776	332.557
574.84	332.385
577.904	332.592
580.967	333.03
584.029	333.653
587.09	335.004
590.147	336.28
593.205	337.866
596.262	339.493
599.318	340.888
602.371	341.757
605.424	341.979
608.476	341.893
611.527	341.957
614.575	341.663
617.623	342.38
620.67	342.185
623.716	342.249
626.759	341.954
629.802	342.081
632.844	341.802
635.884	341.212
638.924	340.969
641.962	340.915
644.998	340.557
648.034	340.484
651.069	340.357
654.101	340.158
657.133	340.007
660.165	339.429
663.193	339.089
666.222	338.897
669.25	338.49
672.274	338.651
675.3	338.67
678.324	339.426
681.345	339.694
684.366	340.772
687.385	342.044
690.404	343.638
693.422	345.248
696.438	347.063
699.453	349.257
702.466	352.047
705.479	353.828
708.491	356.457
711.5	359.235
714.51	362.543
717.516	365.937
720.523	368.816
723.528	371.491
726.533	375.378
729.536	379.7
732.537	383.596
735.538	388.136
738.537	393.708
741.535	398.04
744.531	401.517
747.528	404.679
750.521	408.737
753.515	412.579
756.507	416.375
759.498	419.562
762.487	422.284
765.476	425.264
768.463	427.195
771.45	428.523
774.434	429.471
777.417	431.142
780.4	430.358
783.381	428.846
786.362	426.895
789.34	424.323
792.319	421.73
795.294	419.323
798.269	416.368
801.244	413.301
804.217	410.193
807.189	409.01
810.159	408.209
813.128	408.214
816.097	412.405
819.064	413.443
822.03	411.991
824.995	414.146
827.958	416.38
830.921	419.259
833.881	421.57
836.841	423.378
839.801	424.619
842.758	425.347
845.714	425.093
848.67	422.955
851.624	419.945
854.576	418.349
857.529	410.695
860.479	398.03
863.428	378.697
866.377	358.824
869.324	337.638
872.269	316.211
875.215	295.201
878.158	275.208
881.1	254.457
884.041	238.686
886.982	224.915
889.92	212.074
892.858	203.527
895.794	196.416
898.73	191.248
901.664	187.335
904.597	184.312
907.529	182.473
910.459	180.704
913.39	179.33
916.318	176.759
919.245	173.291
922.171	170.529
925.095	168.135
928.02	165.076
930.943	162.725
933.864	160.379
936.784	158.128
939.703	155.837
942.62	154.046
945.539	152.368
948.454	150.998
951.368	149.673
954.282	149.201
957.194	148.787
960.105	148.565
963.014	148.331
965.924	147.501
968.832	146.938
971.738	146.281
974.643	145.292
977.547	144.523
980.45	143.654
983.352	142.958
986.253	141.246
989.152	139.703
992.051	138.295
994.948	137.161
997.844	135.689
1000.74	134.583
1003.63	133.192
1006.53	132.358
1009.42	131.684
1012.31	131.25
1015.2	130.633
1018.09	129.973
1020.97	129.125
1023.86	128.447
1026.74	128.039
1029.63	127.565
1032.51	127.216
1035.39	126.647
1038.27	126.171
1041.15	125.771
1044.03	124.811
1046.91	124.071
1049.78	123.455
1052.66	122.803
1055.53	122.463
1058.4	122.167
1061.27	121.698
1064.14	121.165
1067.01	120.78
1069.88	120.282
1072.75	119.626
1075.61	118.534
1078.48	118.279
1081.34	117.6
1084.2	117.152
1087.06	116.832
1089.92	116.005
1092.78	115.284
1095.64	114.821
1098.5	114.259
1101.35	113.776
1104.21	113.622
1107.06	112.987
1109.91	112.17
1112.77	111.355
1115.62	110.706
1118.46	110.509
1121.31	110.001
1124.16	109.587
1127	109.129
1129.85	108.903
1132.69	108.346
1135.53	107.763
1138.37	107.247
1141.22	106.958
1144.05	106.557
1146.89	105.955
1149.73	105.854
1152.56	105.715
1155.4	105.575
1158.23	104.979
1161.06	104.101
1163.9	103.315
1166.73	102.627
1169.56	102.257
1172.38	101.408
1175.21	100.703
1178.04	100.056
1180.86	99.3419
1183.68	98.8761
1186.51	98.3703
1189.33	97.5716
1192.15	97.0386
1194.97	96.8166
1197.78	96.4988
1200.6	96.2248
1203.42	96.1162
1206.23	96.0607
1209.04	96.2029
1211.86	96.3614
1214.67	96.3025
1217.48	96.4975
1220.29	96.5732
1223.1	96.7786
1225.9	96.7541
1228.71	96.2216
1231.51	95.7988
1234.32	95.2203
1237.12	94.5852
1239.92	93.7822
1242.72	93.1601
1245.52	92.0401
1248.32	91.0115
1251.12	90.4363
1253.92	90.0426
1256.71	89.9022
1259.5	89.8715
1262.3	89.7255
1265.09	89.4128
1267.88	88.6161
1270.67	88.0648
1273.46	87.5929
1276.25	87.2866
1279.03	87.2907
1281.82	87.336
1284.6	87.78
1287.39	87.802
1290.17	87.6823
1292.95	87.338
1295.73	87.1261
1298.51	86.6606
1301.29	86.5997
1304.06	86.6885
1306.84	86.0819
1309.61	85.7408
1312.39	85.3486
1315.16	84.7592
1317.93	84.1996
1320.7	83.6973
1323.47	83.0226
1326.24	82.3231
1329.01	81.8686
1331.77	81.2281
1334.54	80.5468
1337.3	79.7161
1340.06	79.3054
1342.83	78.6976
1345.59	78.3552
1348.35	78.3846
1351.1	78.3085
1353.86	78.6016
1356.62	78.8708
1359.37	78.5361
1362.13	78.117
1364.88	77.8019
1367.63	77.7415
1370.39	77.4148
1373.14	77.3628
1375.89	77.3541
1378.63	77.4399
1381.38	77.06
1384.13	76.524
1386.87	75.803
1389.62	75.2215
1392.36	74.9034
1395.1	74.5228
1397.84	73.9435
1400.58	73.6971
1403.32	73.4279
1406.06	73.5354
1408.79	73.5965
1411.53	73.7471
1414.26	73.6579
1417	73.3556
1419.73	72.9939
1422.46	72.6194
1425.19	72.3544
1427.92	72.0614
1430.65	71.574
1433.38	71.2079
1436.1	71.1128
1438.83	70.7402
1441.55	70.0885
1444.27	69.8394
1447	69.8819
1449.72	69.9985
1452.44	70.2414
1455.16	70.5072
1457.87	70.7385
1460.59	71.0472
1463.31	71.2042
1466.02	71.2229
1468.73	71.0052
1471.45	70.6852
1474.16	70.1794
1476.87	69.9309
1479.58	69.6616
1482.29	69.3558
1484.99	69.4141
1487.7	69.3488
1490.41	69.2002
1493.11	68.671
1495.81	67.8338
1498.52	67.4637
1501.22	67.1425
1503.92	66.7314
1506.62	66.4368
1509.32	65.9535
1512.01	65.699
1514.71	64.7763
1517.4	63.67
1520.1	62.6767
1522.79	61.7567
1525.48	61.1685
1528.17	60.8065
1530.86	60.6174
1533.55	60.4713
1536.24	60.5476
1538.93	60.7357
1541.61	60.7072
1544.3	61.104
1546.98	61.7058
1549.67	62.206
1552.35	62.7076
1555.03	63.0518
1557.71	63.2862
1560.39	63.3385
1563.07	63.7072
1565.74	63.907
1568.42	63.7568
1571.09	63.5823
1573.77	63.4328
1576.44	63.1572
1579.11	62.9064
1581.78	62.599
1584.45	62.1326
1587.12	61.7707
1589.79	61.3193
1592.45	61.0373
1595.12	60.7565
1597.78	60.6954
1600.45	60.6806
1603.11	60.5437
1605.77	60.4296
1608.43	60.2273
1611.09	60.1776
1613.75	60.0127
1616.41	59.8177
1619.07	59.719
1621.72	59.195
1624.38	58.8571
1627.03	58.8582
1629.68	59.2233
1632.33	59.2637
1634.98	59.1492
1637.63	59.1145
1640.28	59.4462
1642.93	59.2703
1645.58	59.1469
1648.22	58.8601
1650.87	58.46
1653.51	58.1233
1656.15	57.4911
1658.8	57.0994
1661.44	56.777
1664.08	56.4984
1666.71	56.0327
1669.35	55.4821
1671.99	55.3385
1674.62	54.6752
1677.26	53.9369
1679.89	53.2323
1682.53	52.9466
1685.16	52.9062
1687.79	52.9981
1690.42	53.2182
1693.05	53.5421
1695.67	53.6072
1698.3	53.4027
1700.93	53.1572
1703.55	52.7869
1706.18	52.3123
1708.8	52.0282
1711.42	51.8136
1714.04	51.2748
1716.66	50.8696
1719.28	50.3688
1721.9	50.434
1724.51	50.024
1727.13	49.7358
1729.75	49.5374
1732.36	49.468
1734.97	49.5353
1737.58	49.478
1740.2	48.5582
1742.81	47.7944
1745.42	47.1778
1748.02	46.5379
1750.63	46.1348
1753.24	45.7355
1755.84	45.5456
1758.45	45.4404
1761.05	45.3226
1763.65	45.6981
1766.25	45.7528
1768.85	45.9702
1771.45	46.1449
1774.05	46.5127
1776.65	46.6503
1779.24	46.6118
1781.84	46.6028
1784.44	46.4602
1787.03	46.3885
1789.62	46.2881
1792.21	46.2806
1794.8	46.6318
1797.39	46.9571
1799.98	47.0671
1802.57	46.6032
1805.16	45.8925
1807.74	45.2566
1810.33	44.5575
1812.91	44.0048
1815.49	43.5875
1818.08	43.4682
1820.66	43.5809
1823.24	43.7037
1825.82	43.8638
1828.39	43.977
1830.97	44.2427
1833.55	44.653
1836.12	44.9045
1838.7	45.1629
1841.27	45.2939
1843.84	45.142
1846.42	44.978
1848.99	44.4718
1851.56	43.8759
1854.12	43.4606
1856.69	43.1912
1859.26	43.0302
1861.82	42.9507
1864.39	43.1846
1866.95	42.9522
1869.52	42.8118
1872.08	42.4929
1874.64	42.4178
1877.2	42.6591
1879.76	42.6047
1882.32	42.6369
1884.87	42.6434
1887.43	42.4987
1889.98	42.2672
1892.54	42.1055
1895.09	41.831
1897.64	41.508
1900.2	41.2966
1902.75	41.249
1905.3	41.1393
1907.85	40.9688
1910.39	40.8494
1912.94	40.9035
1915.49	41.16
1918.03	41.2596
1920.57	41.3076
1923.12	41.3763
1925.66	41.4489
1928.2	41.4662
1930.74	41.4125
1933.28	41.3681
1935.82	41.3304
1938.36	41.3181
1940.89	41.0928
1943.43	40.9515
1945.96	40.8458
1948.5	40.7152
1951.03	40.7015
1953.56	40.7097
1956.09	40.8679
1958.62	40.879
1961.15	41.0182
1963.68	40.9435
1966.21	40.9103
1968.73	40.7666
1971.26	40.5509
1973.78	40.2362
1976.31	39.8944
1978.83	39.601
1981.35	39.5332
1983.87	39.3934
1986.39	39.4339
1988.91	38.6981
1991.43	37.921
1993.94	37.4359
1996.46	36.8083
1998.98	36.3329
2001.49	36.1685
2004	36.0139
2006.52	35.857
2009.03	36.1026
2011.54	36.5171
2014.05	36.8447
2016.56	36.7827
2019.06	36.6748
2021.57	36.6335
2024.08	36.7837
2026.58	36.922
2029.08	37.2426
2031.59	37.6047
2034.09	37.9679
2036.59	38.2482
2039.09	38.5432
2041.59	38.5605
2044.09	37.6838
2046.59	37.5356
2049.08	37.5484
2051.58	37.5212
2054.07	37.6463
2056.57	38.0138
2059.06	38.4339
2061.55	38.4109
2064.05	38.3456
2066.54	38.2224
2069.02	38.0196
2071.51	37.6115
2074	37.2689
2076.49	36.8199
2078.97	36.4073
2081.46	35.9463
2083.94	35.577
2086.43	35.3869
2088.91	35.5067
2091.39	35.4479
2093.87	35.4686
2096.35	35.7124
2098.83	35.9994
2101.3	36.2707
2103.78	36.1759
2106.26	35.8466
2108.73	35.4731
2111.21	34.9386
2113.68	34.7829
2116.15	34.7961
2118.62	34.6549
2121.09	34.5538
2123.56	34.4923
2126.03	34.5724
2128.5	34.5904
2130.97	34.7905
2133.43	34.9263
2135.9	35.1904
2138.36	35.3729
2140.83	35.4143
2143.29	34.9508
2145.75	34.5672
2148.21	34.1666
2150.67	33.8216
2153.13	33.6758
2155.59	33.6127
2158.04	33.5459
2160.5	33.6354
2162.95	33.6491
2165.41	33.3884
2167.86	33.1284
2170.31	33.1133
2172.77	33.0531
2175.22	33.1156
2177.67	33.4249
2180.12	33.5756
2182.56	33.9275
2185.01	34.0877
2187.46	34.3236
2189.9	34.557
2192.35	34.667
2194.79	34.6382
2197.23	34.5743
2199.68	34.3112
2202.12	34.1712
2204.56	34.1579
2207	34.0975
2209.43	33.9113
2211.87	33.8653
2214.31	33.7145
2216.74	33.3036
2219.18	32.913
2221.61	32.5715
2224.05	32.4
2226.48	32.2682
2228.91	32.1463
2231.34	32.2174
2233.77	32.4496
2236.2	32.6157
2238.63	32.6919
2241.05	32.2216
2243.48	31.1864
2245.9	30.7462
2248.33	30.505
2250.75	30.5502
2253.17	30.6825
2255.6	30.9014
2258.02	31.2082
2260.44	31.5678
2262.86	32.4018
2265.27	33.069
2267.69	33.6698
2270.11	33.2451
2272.52	32.7009
2274.94	31.6233
2277.35	31.1588
2279.76	30.8078
2282.18	30.6572
2284.59	30.5975
2287	30.6998
2289.41	30.8297
2291.82	31.1448
2294.23	31.4367
2296.63	31.7075
2299.04	31.9556
2301.44	32.248
2303.85	32.2894
2306.25	31.8836
2308.65	31.8419
2311.05	31.6536
2313.46	31.3803
2315.86	31.124
2318.25	31.0687
2320.65	31.0224
2323.05	31.0575
2325.45	31.2307
2327.84	31.5346
2330.24	31.6835
2332.63	31.9572
2335.03	32.068
2337.42	32.3075
2339.81	32.1069
2342.2	31.8596
2344.59	31.5166
2346.98	31.2581
2349.37	31.1383
2351.75	31.1182
2354.14	31.2501
2356.52	31.391
2358.91	31.4145
2361.29	31.4028
2363.67	31.3374
2366.06	31.0865
2368.44	30.7091
2370.82	30.5914
2373.2	30.6284
2375.58	30.7115
2377.95	30.8721
2380.33	31.0288
2382.71	31.2097
2385.08	31.5884
2387.46	31.2453
2389.83	31.0351
2392.2	30.6685
2394.57	30.293
2396.95	29.8406
2399.32	29.703
2401.68	29.4619
2404.05	29.1935
2406.42	28.8971
2408.79	28.686
2411.15	28.7316
2413.52	28.7062
2415.88	29.0771
2418.25	29.3479
2420.61	29.7444
2422.97	30.0922
2425.33	30.3522
2427.69	30.5174
2430.05	30.6392
2432.41	30.0649
2434.77	29.4447
2437.12	29.1872
2439.48	28.8919
2441.83	29.3877
2444.19	29.545
2446.54	29.9153
2448.89	30.2266
2451.24	30.6225
2453.6	31.0193
2455.95	31.0502
2458.29	31.0804
2460.64	31.191
2462.99	31.3267
2465.34	31.5043
2467.68	31.5666
2470.03	31.5603
2472.37	31.4816
2474.72	31.4003
2477.06	31.1436
2479.4	30.823
2481.74	30.3142
2484.08	30.1897
2486.42	30.134
2488.76	30.4564
2491.1	30.7965
2493.43	31.1577
2495.77	31.4644
2498.1	31.6356
2500.44	31.5767
2502.77	30.974
2505.1	30.5526
2507.43	30.6704
2509.76	31.0382
2512.1	31.2837
2514.42	31.462
2516.75	31.5956
2519.08	31.4829
2521.41	31.2646
2523.73	30.9648
2526.06	30.6683
2528.38	30.4245
2530.71	29.8632
2533.03	29.7448
2535.35	29.9665
2537.67	30.3957
2539.99	30.5907
2542.31	30.6564
2544.63	30.6236
2546.95	30.2618
2549.26	29.8889
2551.58	29.551
2553.89	29.4731
2556.21	29.6239
2558.52	29.6953
2560.84	30.0024
2563.15	29.4641
2565.46	29.1111
2567.77	28.6212
2570.08	28.3484
2572.39	28.305
2574.7	28.3928
2577	28.5866
2579.31	28.5281
2581.61	28.5074
2583.92	28.4727
2586.22	28.2455
2588.53	28.1599
2590.83	28.0773
2593.13	28.0249
2595.43	27.9762
2597.73	27.8732
2600.03	27.8198
2602.33	26.9227
2604.62	26.8961
2606.92	27.272
2609.22	27.8431
2611.51	28.545
2613.81	29.0877
2616.1	29.4679
2618.39	29.5772
2620.68	29.1593
2622.97	28.945
2625.26	28.7427
2627.55	28.5174
2629.84	27.995
2632.13	27.4925
2634.42	27.2551
2636.7	27.2654
2638.99	27.4093
2641.27	27.9646
2643.56	28.2553
2645.84	28.7885
2648.12	29.1282
2650.4	29.5072
2652.68	28.0972
2654.96	27.7924
2657.24	26.6094
2659.52	27.5605
2661.8	28.7317
2664.07	30.8951
2666.35	29.8473
2668.63	29.5379
2670.9	29.0745
2673.17	29.2754
2675.45	29.02
2677.72	29.2118
2679.99	29.1825
2682.26	29.321
2684.53	29.335
2686.8	29.1747
2689.06	28.9972
2691.33	28.8962
2693.6	28.9452
2695.86	28.8667
2698.13	28.7821
2700.39	28.8243
2702.66	28.7195
2704.92	28.5707
2707.18	28.6518
2709.44	28.9727
2711.7	29.1815
2713.96	29.4109
2716.22	29.4946
2718.47	29.5743
2720.73	29.592
2722.99	29.639
2725.24	29.7323
2727.5	29.9685
2729.75	29.9606
2732	29.8256
2734.26	29.8629
2736.51	29.9673
2738.76	29.9182
2741.01	29.804
2743.25	29.7497
2745.5	29.5065
2747.75	29.3918
2750	29.3063
2752.24	29.36
2754.49	29.4668
2756.73	29.7087
2758.98	30.0321
2761.22	29.9873
2763.46	29.793
2765.7	29.5896
2767.94	29.3395
2770.18	29.2068
2772.42	29.0959
2774.66	29.1606
2776.9	29.4881
2779.13	29.765
2781.37	30.1508
2783.6	30.3313
2785.84	30.5836
2788.07	30.7475
2790.3	30.5691
2792.53	29.972
2794.77	29.6064
2797	29.4298
2799.23	29.2442
2801.45	29.1603
2803.68	29.1834
2805.91	29.2104
2808.14	29.3029
2810.36	29.4844
2812.59	29.658
2814.81	29.8961
2817.03	29.8605
2819.26	29.84
2821.48	29.848
2823.7	30.0783
2825.92	30.209
2828.14	30.239
2830.36	30.1853
2832.57	30.0943
2834.79	29.8814
2837.01	29.421
2839.22	28.9062
2841.44	28.4686
2843.65	28.2247
2845.87	27.9627
2848.08	27.7682
2850.29	27.9043
2852.5	28.0803
2854.71	28.2338
2856.92	28.2783
2859.13	28.4807
2861.34	28.6642
2863.55	29.0612
2865.75	29.2298
2867.96	29.5776
2870.16	30.1662
2872.37	30.6053
2874.57	31.0509
2876.77	31.6552
2878.98	31.9216
2881.18	31.8179
2883.38	31.6493
2885.58	31.6218
2887.78	31.5793
2889.97	31.5203
2892.17	31.4131
2894.37	31.2925
2896.56	31.1912
2898.76	31.12
2900.95	31.0667
2903.15	30.9371
2905.34	30.7547
2907.53	30.6372
2909.72	30.5117
2911.91	30.3569
2914.1	30.3256
2916.29	30.3361
2918.48	30.2841
2920.67	30.2336
2922.86	30.1571
2925.04	30.037
2927.23	30.0786
2929.41	29.9652
2931.6	29.9969
2933.78	29.8196
2935.96	29.6749
2938.14	29.5576
2940.32	29.427
2942.5	29.5334
2944.68	29.772
2946.86	30.0805
2949.04	30.1487
2951.22	30.29
2953.39	30.2726
2955.57	30.2642
2957.74	30.1959
2959.92	30.2086
2962.09	30.0494
2964.26	29.726
2966.44	29.4545
2968.61	29.2102
2970.78	29.0949
2972.95	29.0546
2975.12	29.0393
2977.28	29.0632
2979.45	29.2651
2981.62	29.4188
2983.79	29.4941
2985.95	29.7798
2988.11	29.757
2990.28	29.6527
2992.44	29.6881
2994.6	29.8016
2996.77	29.8272
2998.93	29.9007
3001.09	29.9494
3003.25	29.9435
3005.4	29.9635
3007.56	29.8829
3009.72	29.8392
3011.88	29.7475
3014.03	29.7711
3016.19	29.9327
3018.34	30.2168
3020.49	30.7149
3022.65	30.4398
3024.8	29.9485
3026.95	29.6078
3029.1	29.2318
3031.25	29.1647
3033.4	29.2992
3035.55	29.5513
3037.7	30.0229
3039.84	30.407
3041.99	30.6254
3044.13	30.6335
3046.28	30.3843
3048.42	30.0865
3050.57	29.9661
3052.71	30.1647
3054.85	30.4498
3056.99	30.8347
3059.13	31.461
3061.27	31.6808
3063.41	31.962
3065.55	31.9853
3067.69	31.7312
3069.82	31.9776
3071.96	31.8524
3074.09	31.6421
3076.23	31.3544
3078.36	31.1646
3080.5	30.952
3082.63	31.1498
3084.76	29.7011
3086.89	29.2464
3089.02	29.1568
3091.15	29.2571
3093.28	29.4857
3095.41	29.9647
3097.53	30.3158
3099.66	30.6484
3101.79	30.9426
3103.91	31.1981
3106.04	31.4456
3108.16	31.5498
3110.28	31.5077
3112.41	31.6235
3114.53	31.9951
3116.65	32.2702
3118.77	32.4594
3120.89	32.1466
3123.01	31.8407
3125.12	31.7112
3127.24	31.7889
3129.36	32.0678
3131.47	32.5363
3133.59	32.9872
3135.7	32.9984
3137.82	32.839
3139.93	32.7636
3142.04	32.6126
3144.15	32.5562
3146.27	32.4425
3148.38	32.2805
3150.49	32.0986
3152.59	32.0451
3154.7	32.1167
3156.81	32.2356
3158.92	32.1731
3161.02	32.3084
3163.13	32.22
3165.23	32.1945
3167.33	32.426
3169.44	32.606
3171.54	32.6558
3173.64	32.6496
3175.74	32.6043
3177.84	32.4884
3179.94	32.2696
3182.04	32.3367
3184.14	32.6701
3186.24	32.8401
3188.33	32.8133
3190.43	32.8146
3192.52	32.5666
3194.62	32.3893
3196.71	32.1482
3198.81	32.0967
3200.9	32.2395
3202.99	32.3362
3205.08	32.8758
3207.17	33.2908
3209.26	33.1083
3211.35	32.4361
3213.44	32.0649
3215.53	31.9019
3217.61	32.0203
3219.7	32.0779
3221.79	32.493
3223.87	32.6957
3225.95	33.048
3228.04	33.1461
3230.12	32.6161
3232.2	32.5803
3234.28	32.5217
3236.36	32.6905
3238.44	32.8349
3240.52	33.074
3242.6	33.4256
3244.68	33.4923
3246.76	33.6484
3248.83	33.4486
3250.91	33.0373
3252.98	32.9826
3255.06	32.7156
3257.13	32.7636
3259.2	32.965
3261.28	33.2119
3263.35	33.0016
3265.42	32.9229
3267.49	32.741
3269.56	32.4511
3271.63	32.287
3273.7	32.4062
3275.76	32.644
3277.83	32.7899
3279.9	33.1851
3281.96	33.4415
3284.03	33.5661
3286.09	33.6475
3288.15	33.8637
3290.22	34.0479
3292.28	34.3321
3294.34	34.5164
3296.4	34.8856
3298.46	35.0823
3300.52	34.9832
3302.58	34.709
3304.64	34.4396
3306.69	34.0976
3308.75	33.8137
3310.8	33.542
3312.86	33.3415
3314.91	33.5541
3316.97	33.6955
3319.02	33.6054
3321.07	33.0634
3323.12	33.2197
3325.18	33.4992
3327.23	33.6956
3329.28	33.9526
3331.32	33.9902
3333.37	34.0832
3335.42	34.2965
3337.47	34.392
3339.51	34.2747
3341.56	33.7968
3343.6	33.5844
3345.65	33.3471
3347.69	33.1746
3349.73	32.9166
3351.78	32.8049
3353.82	32.6311
3355.86	32.5429
3357.9	32.6369
3359.94	32.7917
3361.98	33.179
3364.02	33.7955
3366.05	34.1272
3368.09	34.6203
3370.12	35.1024
3372.16	35.3261
3374.19	35.5479
3376.23	35.7804
3378.26	35.9259
3380.29	35.8998
3382.33	35.8825
3384.36	36.0446
3386.39	35.9344
3388.42	35.9804
3390.45	35.8187
3392.48	35.6889
3394.5	35.5794
3396.53	35.2281
3398.56	34.9598
3400.58	34.6781
3402.61	34.3978
3404.63	34.2394
3406.66	34.0766
3408.68	34.1887
3410.7	34.5003
3412.73	34.6017
3414.75	34.6095
3416.77	34.8937
3418.79	34.8242
3420.81	34.4378
3422.83	34.3967
3424.84	34.3901
3426.86	34.4496
3428.88	34.5694
3430.89	34.8629
3432.91	34.9938
3434.92	35.2281
3436.94	35.5239
3438.95	36.0029
3440.96	36.6765
3442.98	36.8738
3444.99	36.5229
3447	36.0715
3449.01	35.8577
3451.02	35.7999
3453.03	35.4046
3455.03	35.1251
3457.04	35.0904
3459.05	34.8611
3461.05	34.8142
3463.06	34.4874
3465.06	34.382
3467.07	34.4109
3469.07	34.5482
3471.07	34.9624
3473.08	35.6676
3475.08	36.2273
3477.08	36.5325
3479.08	36.7517
3481.08	36.9445
3483.08	36.9104
3485.07	36.8324
3487.07	36.7204
3489.07	36.282
3491.07	35.6885
3493.06	35.4359
3495.06	34.9804
3497.05	34.5605
3499.04	34.4535
3501.04	34.3097
3503.03	34.2284
3505.02	34.223
3507.01	34.1823
3509	34.3143
3510.99	34.5387
3512.98	34.5937
3514.97	34.797
3516.96	35.0968
3518.94	35.429
3520.93	35.2471
3522.91	35.0789
3524.9	34.9335
3526.88	35.0373
3528.87	35.082
3530.85	35.2092
3532.83	35.5896
3534.82	35.9925
3536.8	36.4034
3538.78	36.2914
3540.76	36.4283
3542.74	36.5703
3544.71	36.8752
3546.69	37.2789
3548.67	37.3985
3550.65	37.3532
3552.62	37.0426
3554.6	36.5083
3556.57	35.9254
3558.55	35.3568
3560.52	34.993
3562.49	34.7733
3564.47	34.4972
3566.44	34.413
3568.41	34.2893
3570.38	34.4742
3572.35	34.9332
3574.32	35.3016
3576.29	35.5011
3578.25	35.7762
3580.22	35.4019
3582.19	35.7876
3584.15	36.1849
3586.12	36.6603
3588.08	36.8495
3590.05	36.7139
3592.01	36.4683
3593.97	36.2484
3595.93	36.3802
3597.89	36.0541
3599.85	35.8949
3601.81	35.8821
3603.77	35.8748
3605.73	35.6577
3607.69	35.5213
3609.65	35.578
3611.61	35.6554
3613.56	35.2573
3615.52	34.8036
3617.47	34.6587
3619.43	34.4438
3621.38	34.5082
3623.33	34.5448
3625.28	34.8116
3627.24	35.2066
3629.19	35.7899
3631.14	36.4902
3633.09	36.4221
3635.04	36.0644
3636.99	35.5513
3638.93	35.2586
3640.88	35.2085
3642.83	35.0878
3644.77	34.7555
3646.72	34.5764
3648.66	34.3409
3650.61	34.2971
3652.55	34.4054
3654.49	34.4739
3656.44	34.5975
3658.38	34.555
3660.32	34.4824
3662.26	34.3301
3664.2	34.3825
3666.14	34.7504
3668.08	35.0053
3670.01	36.3169
3671.95	34.5233
3673.89	34.564
3675.82	35.042
3677.76	36.4477
3679.69	36.2775
3681.63	36.213
3683.56	36.3155
3685.5	36.5371
3687.43	36.846
3689.36	37.088
3691.29	37.5341
3693.22	37.7776
3695.15	38.0607
3697.08	38.1013
3699.01	37.8267
3700.94	37.4626
3702.86	37.0536
3704.79	36.4657
3706.72	36.1255
3708.64	35.8343
3710.57	35.6227
3712.49	35.848
3714.41	36.3119
3716.34	36.7355
3718.26	36.9
3720.18	37.2247
3722.1	36.84
3724.02	35.9162
3725.94	35.2274
3727.86	34.6487
3729.78	34.2084
3731.7	34.1317
3733.61	34.2821
3735.53	34.8845
3737.45	35.4298
3739.36	36.2953
3741.28	37.0498
3743.19	36.5627
3745.11	37.1132
3747.02	37.5604
3748.93	37.9505
3750.84	38.3815
3752.75	38.5677
3754.66	38.657
3756.57	38.7042
3758.48	38.7285
3760.39	38.6678
3762.3	38.525
3764.21	38.5351
3766.12	38.4005
3768.02	38.4976
3769.93	38.692
3771.83	38.9292
3773.74	39.0408
3775.64	39.4476
3777.54	39.7448
3779.45	39.9764
3781.35	40.4004
3783.25	40.5608
3785.15	40.5466
3787.05	40.3212
3788.95	39.8348
3790.85	39.1417
3792.75	38.5646
3794.65	37.9195
3796.54	37.6181
3798.44	36.9113
3800.34	36.5099
3802.23	36.0384
3804.13	35.5554
3806.02	35.402
3807.91	35.5496
3809.81	35.8204
3811.7	35.6818
3813.59	35.5385
3815.48	35.4908
3817.37	35.299
3819.26	35.021
3821.15	34.8634
3823.04	35.0501
3824.93	35.5505
3826.82	35.9736
3828.7	36.5409
3830.59	37.695
3832.47	38.2831
3834.36	38.7605
3836.24	39.0839
3838.13	39.1234
3840.01	39.1649
3841.89	39.1627
3843.78	39.1633
3845.66	38.8318
3847.54	38.3298
3849.42	38.1149
3851.3	38.0566
3853.18	37.966
3855.06	38.0397
3856.93	38.0926
3858.81	38.0502
3860.69	38.2254
3862.56	38.3719
3864.44	38.3127
3866.31	38.1881
3868.19	38.2002
3870.06	38.1733
3871.93	38.1169
3873.81	38.0852
3875.68	38.135
3877.55	37.9536
3879.42	37.6461
3881.29	37.5525
3883.16	37.2546
3885.03	36.8329
3886.9	36.5643
3888.77	36.299
3890.63	36.1078
3892.5	36.0366
3894.37	35.9494
3896.23	35.9877
3898.1	35.7782
3899.96	35.7855
3901.82	35.9055
3903.69	36.0594
3905.55	36.516
3907.41	37.1947
3909.27	37.8505
3911.13	38.278
3912.99	38.5133
3914.85	39.5125
3916.71	39.5135
3918.57	39.3281
3920.43	38.7711
3922.28	38.2544
3924.14	37.4291
3926	36.83
3927.85	36.4651
3929.71	36.1703
3931.56	36.0141
3933.41	35.6102
3935.27	35.1856
3937.12	35.4122
3938.97	35.7682
3940.82	35.0432
3942.67	34.7147
3944.52	34.8779
3946.37	35.1935
3948.22	36.4854
3950.07	37.7902
3951.92	39.4814
3953.77	40.0112
3955.61	40.1909
3957.46	40.5389
3959.3	40.5157
3961.15	40.3198
3962.99	39.6678
3964.84	38.8899
3966.68	38.0144
3968.52	37.7419
3970.36	37.5537
3972.2	37.3199
3974.05	37.3861
3975.89	37.28
3977.73	37.3536
3979.56	37.6816
3981.4	37.9853
3983.24	37.7417
3985.08	37.6037
3986.92	37.4034
3988.75	37.3406
3990.59	37.5003
3992.42	38.1824
3994.26	38.5964
3996.09	38.741
3997.92	38.1687
3999.76	35.6721
