#Acq. time (s)=	60
#Accumulations=	2
#Range=	Off
#Autofocus=	Off
#Macrospot=	Off
#AutoExposure=	Off
#Spike filter=	Multiple accum.
#Delay time (s)=	2
#Binning=	1
#Readout mode=	Signal
#DeNoise=	Standard
#ICS correction=	On
#Dark correction=	Off
#Inst. Process=	Off
#Detector Gain=	Best Dynamic
#Detector ADC=	50 kHz HS
#Detector temperature (°C)=	-60.09
#Instrument=	LabRAM HR Evol
#Detector=	SIN-EM FIVIS
#Objective=	x50_VIS_LWD
#Grating=	1800 (450-850nm)
#ND Filter=	5%
#Laser=	532nm_Edge
#Spectro (cm-¹)=	849.971
#Hole=	30.0125
#Temperature=	0
#Range=	Visible
#StageXY=	75x50mm Scan+
#StageZ=	Z motor
#X (µm)=	0
#Y (µm)=	0
#Z (µm)=	-859.9
#Full time(mm:ss)=	2:05
#Project=	20_12_18
#Sample=	BU25TS
#Site=	
#Title=	BU25TS-Ore1_2_1800 (450-850nm)_532nm_Edge_5%_x50_VIS_LWD_H30um_60sX2
#Remark=	
#Date=	18.12.2020 15:49
#Acquired=	18.12.2020 15:49:46
1076.92	15.2185
1076.64	15.7072
1076.36	15.8325
1076.08	15.9394
1075.81	16.0291
1075.53	16.103
1075.25	16.1626
1074.97	16.2089
1074.69	16.2432
1074.41	16.2668
1074.13	16.2805
1073.85	16.285
1073.57	16.2813
1073.29	16.27
1073.01	16.2511
1072.73	16.217
1072.45	16.1896
1072.17	16.1543
1071.89	16.1228
1071.62	16.0858
1071.34	16.0474
1071.06	16.0098
1070.78	15.9654
1070.5	15.9284
1070.22	15.8804
1069.94	15.845
1069.66	15.797
1069.38	15.764
1069.1	15.7189
1068.82	15.6886
1068.54	15.6486
1068.26	15.6213
1067.98	15.5881
1067.7	15.5859
1067.42	15.5859
1067.14	15.5725
1066.86	15.5822
1066.59	15.5785
1066.31	15.5945
1066.03	15.598
1065.75	15.618
1065.47	15.6266
1065.19	15.6954
1064.91	15.7155
1064.63	15.7337
1064.35	15.7496
1064.07	15.7627
1063.79	15.7727
1063.51	15.7793
1063.23	15.7821
1062.95	15.7811
1062.67	15.7763
1062.39	15.7678
1062.11	15.7558
1061.83	15.7407
1061.55	15.6704
1061.27	15.647
1060.99	15.624
1060.71	15.6022
1060.43	15.5825
1060.15	15.5658
1059.87	15.5529
1059.59	15.545
1059.31	15.5425
1059.03	15.5473
1058.75	15.5609
1058.47	15.5781
1058.19	15.6073
1057.91	15.6369
1057.63	15.6805
1057.35	15.722
1057.07	15.7779
1056.79	15.8296
1056.51	15.8951
1056.23	15.9546
1055.95	16.0261
1055.67	16.0905
1055.39	16.1576
1055.11	16.1457
1054.83	16.1324
1054.55	16.118
1054.27	16.1029
1053.99	16.0876
1053.71	16.0726
1053.43	16.0639
1053.15	16.0521
1052.87	16.0476
1052.59	16.0409
1052.31	16.042
1052.03	16.0418
1051.75	16.0492
1051.47	16.0564
1051.19	16.0706
1050.91	16.0854
1050.63	16.1063
1050.35	16.1281
1050.07	16.1551
1049.79	16.1826
1049.51	16.1723
1049.23	16.2195
1048.95	16.259
1048.67	16.3099
1048.39	16.3522
1048.1	16.3624
1047.82	16.3241
1047.54	16.2887
1047.26	16.2568
1046.98	16.2289
1046.7	16.2056
1046.42	16.1871
1046.14	16.1738
1045.86	16.1657
1045.58	16.1626
1045.3	16.1642
1045.02	16.1699
1044.74	16.179
1044.46	16.1913
1044.18	16.206
1043.9	16.2225
1043.61	16.2404
1043.33	16.2585
1043.05	16.2762
1042.77	16.2926
1042.49	16.307
1042.21	16.0998
1041.93	15.8787
1041.65	15.7349
1041.37	15.5048
1041.09	15.1653
1040.81	15.163
1040.53	15.1829
1040.25	15.2245
1039.97	15.2578
1039.69	15.6533
1039.4	15.858
1039.12	16.0685
1038.84	16.2474
1038.56	16.242
1038.28	16.2393
1038	16.2394
1037.72	16.2426
1037.44	16.2514
1037.16	16.2572
1036.88	16.2689
1036.6	16.2784
1036.31	16.2934
1036.03	16.3078
1035.75	16.3268
1035.47	16.3487
1035.19	16.3836
1034.91	16.4077
1034.63	16.4447
1034.35	16.4698
1034.07	16.4948
1033.78	16.4064
1033.5	16.3208
1033.22	16.236
1032.94	16.1603
1032.66	16.083
1032.38	16.0213
1032.1	15.9547
1031.82	15.9092
1031.53	15.8557
1031.25	15.8293
1030.97	15.7896
1030.69	15.7799
1030.41	15.8383
1030.13	15.8577
1029.85	15.8825
1029.57	15.9101
1029.28	15.9385
1029	15.9654
1028.72	15.987
1028.44	16.0024
1028.16	16.0135
1027.88	16.0204
1027.6	16.0285
1027.32	16.0281
1027.03	16.0336
1026.75	16.0281
1026.47	16.032
1026.19	16.026
1025.91	16.0204
1025.63	16.0161
1025.35	16.0141
1025.06	16.0151
1024.78	16.0195
1024.5	16.0278
1024.22	16.0403
1023.94	16.057
1023.65	16.0783
1023.37	16.1039
1023.09	16.1337
1022.81	16.1676
1022.53	16.2052
1022.25	16.246
1021.97	16.2899
1021.68	16.3356
1021.4	16.3823
1021.12	16.3523
1020.84	16.2658
1020.56	16.1856
1020.28	16.1106
1019.99	16.0604
1019.71	15.9767
1019.43	15.9201
1019.15	15.8788
1018.87	15.8378
1018.58	15.8295
1018.3	15.8116
1018.02	15.8125
1017.74	15.8215
1017.46	15.8386
1017.17	15.9221
1016.89	15.965
1016.61	15.9854
1016.33	16.0357
1016.05	16.0905
1015.77	16.2548
1015.48	16.3299
1015.2	16.4001
1014.92	16.4076
1014.64	16.3643
1014.35	16.3212
1014.07	16.279
1013.79	16.2379
1013.51	16.198
1013.23	16.1596
1012.95	16.1231
1012.66	16.0887
1012.38	16.0614
1012.1	16.0342
1011.82	16.0148
1011.54	15.9957
1011.25	15.9849
1010.97	15.9745
1010.69	15.9674
1010.4	15.93
1010.12	15.9337
1009.84	15.9442
1009.56	15.9271
1009.28	15.861
1008.99	15.7979
1008.71	15.7586
1008.43	15.7211
1008.15	15.7235
1007.86	15.7116
1007.58	15.7424
1007.3	15.7608
1007.02	15.7938
1006.74	15.8061
1006.45	15.8463
1006.17	15.8667
1005.89	15.9099
1005.61	15.9345
1005.32	15.9759
1005.04	16.0032
1004.76	16.0392
1004.48	16.0681
1004.19	16.1011
1003.91	16.1342
1003.63	16.1671
1003.35	16.1958
1003.06	16.2269
1002.78	16.2475
1002.5	16.3893
1002.21	16.3619
1001.93	16.3372
1001.65	16.2994
1001.37	16.2617
1001.09	16.2127
1000.8	16.1576
1000.52	16.0968
1000.24	16.0237
999.954	15.9549
999.672	15.8678
999.388	15.7792
999.106	15.7144
998.824	15.6206
998.54	15.5789
998.258	15.5221
997.974	15.4817
997.692	15.467
997.41	15.4648
997.126	15.4726
996.844	15.5676
996.56	15.8345
996.278	15.9227
995.996	16.0189
995.712	16.1146
995.43	16.2068
995.146	16.2487
994.864	16.3662
994.579	16.4814
994.297	16.591
994.013	16.7228
993.731	16.845
993.449	16.9697
993.165	17.0998
992.883	17.0819
992.599	17.0934
992.316	17.0772
992.032	17.0549
991.75	17.0204
991.466	16.9071
991.184	16.8169
990.899	16.753
990.617	16.6749
990.335	16.5681
990.051	16.4864
989.768	16.3972
989.484	16.322
989.202	16.2362
988.918	16.1604
988.635	16.0818
988.351	16.0095
988.069	15.9423
987.785	15.8852
987.502	15.8407
987.218	15.8082
986.936	15.7939
986.651	15.7945
986.369	15.8177
986.085	15.8612
985.802	15.9301
985.518	15.9305
985.235	15.9356
984.951	15.9303
984.669	15.9399
984.384	15.9398
984.102	15.9536
983.817	15.959
983.535	15.9768
983.25	15.9876
982.968	16.0097
982.684	16.0343
982.399	16.0617
982.117	16.0933
981.832	16.1243
981.55	15.1711
981.265	16.1916
980.983	14.8081
980.698	16.0238
980.416	16.2868
980.131	16.3096
979.848	16.0746
979.564	16.3601
979.279	16.3802
978.997	16.3986
978.712	16.4106
978.43	16.423
978.145	16.4263
977.862	16.4325
977.578	16.4291
977.295	16.3893
977.01	16.148
976.726	15.9197
976.443	15.7576
976.158	15.6302
975.876	15.582
975.591	15.6043
975.306	15.7059
975.024	15.7997
974.739	15.8877
974.456	15.9677
974.172	16.0368
973.887	16.0984
973.604	16.1491
973.319	16.1926
973.036	16.2297
972.752	16.263
972.467	16.2884
972.184	16.276
971.899	16.2613
971.617	16.244
971.332	16.2235
971.047	16.1997
970.764	16.1724
970.479	16.1416
970.196	16.1074
969.911	16.0697
969.627	16.0284
969.344	15.9839
969.059	15.9365
968.774	15.8869
968.491	15.8357
968.206	15.7838
967.921	15.7319
967.638	15.6809
967.353	15.6319
967.068	15.5858
966.785	15.5438
966.5	15.5069
966.215	15.4763
965.932	15.4526
965.647	15.4367
965.364	15.4299
965.079	15.4325
964.794	15.4443
964.509	15.4653
964.226	15.495
963.941	15.533
963.656	15.5785
963.373	15.6309
963.088	15.6892
962.803	15.7525
962.52	15.8195
962.235	15.8893
961.95	15.9604
961.667	16.0283
961.381	16.0924
961.096	16.1521
960.813	16.2073
960.528	16.2575
960.243	16.2779
959.958	16.2884
959.674	16.2917
959.389	16.288
959.104	16.2777
958.821	16.2614
958.536	16.2398
958.25	16.2152
957.965	16.1898
957.682	16.1648
957.397	16.1422
957.111	16.1231
956.828	16.1087
956.543	16.1
956.258	16.0978
955.972	16.1029
955.689	16.116
955.404	16.1375
955.118	16.1677
954.833	16.2149
954.549	16.2596
954.264	16.3178
953.979	16.3763
953.693	16.4444
953.41	16.5154
953.125	16.5911
952.839	16.6018
952.554	16.6075
952.27	16.6076
951.985	16.6153
951.7	16.621
951.414	16.6316
951.129	16.6464
950.845	16.6625
950.56	16.692
950.274	16.7237
949.989	16.7874
949.705	16.846
949.42	16.9611
949.134	17.0759
948.849	17.2611
948.563	17.4546
948.28	17.4572
947.994	17.4407
947.708	17.4103
947.423	17.376
947.137	16.7616
946.854	15.6532
946.568	14.4377
946.283	15.5046
945.997	16.4094
945.711	16.9266
945.426	16.8201
945.142	16.7193
944.856	16.6111
944.571	16.5323
944.285	16.4431
943.999	16.4139
943.714	16.3908
943.43	16.5489
943.144	17.3401
942.859	17.4925
942.573	17.4879
942.287	17.4212
942.001	17.3212
941.718	17.0723
941.432	16.8973
941.146	16.7086
940.86	16.565
940.574	16.4559
940.289	16.5402
940.003	16.3668
939.719	16.2171
939.433	16.0911
939.147	16.0165
938.862	15.9706
938.576	15.9509
938.29	15.9477
938.004	15.9664
937.718	16.0026
937.434	16.0514
937.148	16.1144
936.862	16.1855
936.576	16.2485
936.291	16.2604
936.005	16.2948
935.719	16.3498
935.433	16.4004
935.147	16.4712
934.863	16.5343
934.577	16.6121
934.291	16.6835
934.005	16.7603
933.719	16.8349
933.433	16.9029
933.147	16.9757
932.861	17.0496
932.575	17.1523
932.289	17.1917
932.003	17.2418
931.717	17.1829
931.432	17.1561
931.146	17.075
930.86	17.0271
930.574	16.9381
930.288	16.8725
930.002	16.7977
929.716	16.7359
929.43	16.6707
929.144	16.6341
928.857	16.6324
928.571	16.5695
928.285	16.7817
927.999	16.9946
927.713	17.2356
927.426	17.1316
927.14	17.0375
926.854	16.9465
926.568	16.873
926.282	16.7965
925.997	16.7527
925.711	16.695
925.425	16.8667
925.138	16.8782
924.852	16.9526
924.566	17
924.28	17.1008
923.993	17.1898
923.707	17.3245
923.421	17.4639
923.134	17.6821
922.848	17.8991
922.562	17.7968
922.275	17.6854
921.989	17.6992
921.702	17.7209
921.416	17.7174
921.13	17.7542
920.843	17.8053
920.557	17.8665
920.27	17.9285
919.984	17.9743
919.698	17.2639
919.411	16.6706
919.125	16.2947
918.838	16.0866
918.552	16.2806
918.265	16.4494
917.977	16.568
917.69	16.5959
917.404	16.6295
917.117	16.6727
916.831	16.7369
916.544	17.0918
916.257	17.4563
915.971	17.8158
915.684	18.1654
915.398	18.4985
915.111	18.7979
914.825	19.1018
914.538	19.1243
914.251	19.1041
913.965	19.0638
913.678	19.0378
913.391	19.0222
913.105	18.9951
912.818	18.9698
912.529	18.9523
912.243	18.9309
911.956	18.9164
911.669	18.9016
911.383	18.8927
911.096	18.8869
910.809	18.7693
910.522	18.6736
910.236	18.6049
909.949	18.5535
909.662	18.5316
909.375	18.5108
909.087	18.6229
908.8	18.7683
908.513	18.8334
908.226	19.0557
907.939	19.1605
907.652	19.4856
907.366	19.5828
907.079	19.6652
906.792	19.7348
906.503	19.8009
906.216	19.8549
905.929	19.9165
905.642	19.8117
905.356	19.8211
905.069	19.852
904.782	19.8908
904.495	19.9422
904.206	20.0038
903.919	20.0781
903.632	20.1752
903.345	20.3277
903.058	20.423
902.771	20.5148
902.484	20.6065
902.195	20.6971
901.908	20.7879
901.621	20.8799
901.334	20.9717
901.047	21.0652
900.76	21.1622
900.471	21.2648
900.184	21.3724
899.897	21.4833
899.61	21.5401
899.322	21.6038
899.035	21.6625
898.746	21.7459
898.459	21.8423
898.172	21.9537
897.885	22.0816
897.598	22.2276
897.31	22.3937
897.021	22.5937
896.734	22.7969
896.447	23.0329
896.16	23.2761
895.873	23.5492
895.583	23.8341
895.296	24.1703
895.009	24.4644
894.722	24.7105
894.434	24.9705
894.145	25.2343
893.858	25.5167
893.571	25.8376
893.283	26.1431
892.994	26.5105
892.707	26.7859
892.419	27.057
892.132	27.3527
891.845	27.6534
891.555	27.9683
891.268	28.2997
890.981	28.6382
890.693	29.0051
890.404	29.3749
890.117	29.7861
889.829	30.1772
889.542	30.6484
889.252	31.1248
888.965	31.6612
888.677	32.2127
888.39	32.8221
888.101	33.4649
887.813	34.5673
887.526	35.4341
887.238	36.2895
886.949	37.1396
886.661	37.7677
886.374	38.39
886.086	39.0356
885.797	39.9816
885.509	41.578
885.222	42.9729
884.932	44.2922
884.644	45.3612
884.357	46.474
884.069	47.593
883.78	48.7861
883.492	49.8485
883.205	51.2592
882.915	52.8207
882.627	54.7413
882.34	56.5501
882.05	58.3253
881.762	60.1405
881.475	61.9188
881.187	63.6762
880.897	65.3744
880.61	66.8408
880.322	68.2891
880.032	69.6987
879.745	71.1019
879.457	72.5389
879.167	73.9575
878.879	75.2895
878.592	76.5737
878.302	77.7706
878.014	78.8953
877.726	79.3307
877.436	79.864
877.149	80.2757
876.861	80.6395
876.571	80.8931
876.283	81.1042
875.995	81.2567
875.706	81.3873
875.418	81.4325
875.13	81.4743
874.84	81.4284
874.552	81.3876
874.262	81.43
873.974	81.3191
873.686	81.2588
873.396	81.1158
873.108	80.9236
872.82	80.6675
872.531	80.3724
872.243	80.0206
871.955	79.6161
871.665	79.1647
871.377	78.6488
871.087	78.096
870.799	77.47
870.511	76.6888
870.221	75.6281
869.933	74.474
869.643	73.2512
869.355	71.8842
869.066	70.4095
868.776	68.8448
868.488	67.2199
868.198	65.6236
867.91	64.1094
867.622	63.8249
867.332	63.1109
867.044	62.1227
866.754	60.8527
866.466	59.9431
866.175	59.0142
865.887	58.0151
865.599	56.7756
865.309	55.5608
865.021	54.4489
864.731	53.4479
864.442	52.5777
864.152	51.7762
863.864	51.1728
863.576	50.6191
863.285	50.0978
862.997	49.5625
862.707	48.9414
862.419	48.3161
862.128	47.6674
861.84	47.0035
861.55	46.355
861.261	45.6931
860.973	45.0695
860.683	44.3513
860.394	43.5381
860.104	42.7707
859.816	42.1005
859.525	41.5494
859.237	41.0913
858.947	40.7749
858.658	40.6015
858.368	40.4869
858.079	40.4173
857.789	40.2104
857.501	39.9473
857.21	39.6621
856.922	39.1874
856.631	38.6833
856.343	38.2181
856.052	37.7002
855.764	36.9932
855.473	36.2867
855.185	35.5937
854.894	34.8914
854.606	34.2408
854.315	33.5887
854.027	33.0003
853.736	32.4545
853.448	31.9617
853.157	31.5167
852.868	31.1177
852.578	30.8309
852.289	30.5444
851.999	30.7971
851.71	31.075
851.419	31.3574
851.131	31.6432
850.84	31.7109
850.551	31.6505
850.261	31.5957
849.97	31.5364
849.681	31.4802
849.391	31.419
849.102	31.3567
848.811	31.291
848.523	30.7998
848.232	30.3614
847.943	29.7266
847.652	29.3906
847.362	29.0872
847.073	28.7918
846.782	28.7099
846.493	28.6116
846.203	28.6248
845.914	28.4986
845.623	28.4304
845.332	28.3279
845.043	28.2582
844.753	28.1687
844.464	28.06
844.173	27.9782
843.884	27.7834
843.593	27.4514
843.302	27.3211
843.013	27.2146
842.722	27.1577
842.433	27.1264
842.143	27.1039
841.852	27.1016
841.563	27.1098
841.272	27.1347
840.983	27.165
840.692	27.3633
840.401	27.361
840.112	27.3918
839.821	27.4073
839.532	27.4003
839.241	27.3799
838.95	27.3427
838.661	27.3027
838.37	27.1361
838.079	27.0428
837.79	26.9524
837.499	26.8628
837.208	26.7738
836.918	26.687
836.627	26.6016
836.338	26.518
836.047	26.4371
835.756	26.3571
835.467	26.2816
835.176	26.2071
834.885	26.1385
834.595	26.0707
834.304	26.0101
834.013	25.9508
833.724	25.8999
833.433	25.8514
833.141	25.8119
832.852	25.7764
832.561	25.7498
832.27	25.7318
831.98	25.7207
831.689	25.7215
831.398	25.7256
831.109	25.7429
830.817	25.7608
830.526	25.7918
830.237	25.8216
829.945	25.863
829.654	25.9023
829.363	25.9511
829.073	25.9979
828.782	26.0523
828.491	26.1052
828.201	26.1631
827.91	26.22
827.619	26.2788
827.329	26.3373
827.038	26.3928
826.746	26.4474
826.455	26.4957
826.166	26.5405
825.874	26.5779
825.583	26.6109
825.293	26.6112
825.002	26.5491
824.71	26.4793
824.419	26.4281
824.129	26.3751
823.838	26.3289
823.546	26.2784
823.255	26.239
822.965	26.1911
822.674	26.1582
822.382	26.1133
822.091	26.0853
821.801	26.0422
821.509	26.0137
821.218	25.9699
820.926	25.8844
820.637	25.7248
820.345	25.5545
820.053	25.374
819.762	25.1846
819.472	24.988
819.18	24.7861
818.889	24.5956
818.597	24.3885
818.307	24.201
818.016	23.9556
817.724	23.7648
817.432	23.585
817.141	23.4178
816.851	23.2648
816.559	23.1271
816.267	23.0058
815.975	22.9019
815.684	22.8157
815.394	22.8984
815.102	22.8785
814.81	22.8714
814.519	22.8524
814.227	22.8619
813.937	22.8619
813.645	22.8842
813.353	22.8996
813.061	22.9324
812.769	22.7558
812.48	22.6065
812.188	22.4429
811.896	22.2898
811.604	22.15
811.312	21.9526
811.02	21.8885
810.73	21.8231
810.438	21.7827
810.146	21.7481
809.854	21.7313
809.562	21.7287
809.27	21.8533
808.98	21.9031
808.688	21.983
808.396	22.0508
808.104	22.0717
807.812	22.1396
807.52	22.1876
807.23	22.2898
806.938	22.2905
806.646	22.3155
806.354	22.3123
806.062	22.3142
805.77	22.3078
805.478	22.2895
805.186	22.2619
804.896	21.9884
804.603	21.9205
804.311	21.8122
804.019	21.7241
803.727	21.6117
803.435	21.5068
803.143	21.4116
802.85	21.3327
802.56	21.2325
802.268	21.2325
801.976	21.2009
801.684	21.2299
801.391	21.228
801.099	21.2824
800.807	21.311
800.515	21.5162
800.222	21.5092
799.93	21.5037
799.64	21.4983
799.347	21.492
799.055	21.4832
798.763	21.4712
798.471	21.4527
798.178	21.4279
797.886	21.3971
797.594	21.3607
797.301	21.3192
797.009	21.2326
796.716	20.8322
796.424	20.4138
796.132	20.3296
795.841	21.0444
795.549	21.08
795.256	21.0535
794.964	21.0299
794.671	21.0096
794.379	20.9931
794.087	20.9809
793.794	20.9733
793.502	20.9696
793.209	20.9701
792.917	20.9949
792.624	21.0178
792.332	21.0432
792.039	21.0705
791.746	21.0991
791.454	21.1285
791.161	21.158
790.869	21.1869
790.576	21.2145
790.284	21.24
789.991	21.2473
789.698	21.1575
789.406	21.0775
789.113	20.9959
788.82	20.9255
788.528	20.856
788.235	20.7973
787.943	20.7418
787.65	20.696
787.357	20.6573
787.064	20.6261
786.772	20.6038
786.479	20.5855
786.186	20.5767
785.894	20.5694
785.601	20.5714
785.308	20.5729
785.015	20.5831
784.723	20.5917
784.43	20.6078
784.137	20.622
783.844	20.6426
783.551	20.6616
783.259	20.6857
782.966	20.7087
782.673	20.7347
782.38	20.76
782.087	20.7851
781.794	20.809
781.501	20.8316
781.209	20.826
780.916	20.8028
780.623	20.7766
780.33	20.7476
780.037	20.7157
779.744	20.6811
779.451	20.6435
779.158	20.6025
778.863	20.5585
778.57	20.5124
778.277	20.465
777.984	20.4175
777.691	20.3711
777.398	20.3432
777.105	20.2828
776.812	20.2479
776.519	20.2198
776.226	20.1998
775.933	20.1899
775.64	20.1907
775.347	20.2026
775.054	20.2256
774.759	20.2595
774.466	20.3039
774.172	20.3584
773.879	20.4195
773.586	20.486
773.293	20.5566
773	20.6303
772.707	20.7057
772.414	20.7819
772.12	20.8576
771.825	20.9319
771.532	20.9794
771.239	20.9668
770.946	20.9648
770.652	20.9587
770.359	20.9472
770.066	20.9476
769.773	20.9522
769.477	20.9617
769.184	20.9749
768.891	20.9921
768.598	21.0135
768.304	21.0394
768.011	21.0699
767.718	21.1048
767.422	21.1438
767.129	21.1908
766.836	21.2322
766.542	21.2767
766.249	21.2455
765.955	21.2121
765.662	21.1748
765.367	21.1406
765.073	21.1035
764.78	21.0664
764.486	21.0295
764.193	20.9937
763.9	20.9572
763.604	20.9203
763.311	20.8815
763.017	20.8415
762.724	20.8007
762.43	20.7598
762.137	20.7192
761.841	20.6799
761.548	20.6429
761.254	20.609
760.961	20.5789
760.667	20.5639
760.371	20.5394
760.078	20.5313
759.784	20.5148
759.491	20.515
759.197	20.5092
758.901	20.5183
758.608	20.5243
758.314	20.542
758.021	20.446
757.727	20.2951
757.431	20.155
757.138	20.0266
756.844	19.9176
756.55	19.8216
756.257	19.754
755.961	19.6972
755.667	19.6758
755.373	19.8923
755.08	20.0072
754.784	20.1651
754.49	20.3985
754.196	20.6654
753.903	20.8915
753.607	20.8619
753.313	20.8315
753.019	20.7926
752.725	20.7488
752.43	20.7035
752.136	20.6491
751.842	20.6021
751.548	20.5427
751.252	20.5019
750.958	20.4211
750.665	20.3772
750.371	20.3266
750.075	20.3475
749.781	20.4065
749.487	19.9053
749.193	20.0477
748.897	20.1839
748.603	20.3246
748.309	20.45
748.013	20.5789
747.719	20.6995
747.425	20.8153
747.131	20.9624
746.835	21.0315
746.541	20.8413
746.247	20.5445
745.951	20.1516
745.657	19.8793
745.363	19.6008
745.069	19.1915
744.773	19.2026
744.479	19.4014
744.185	19.5943
743.889	19.8199
743.595	20.0316
743.301	20.2725
743.004	20.4645
742.71	20.6951
742.416	20.7759
742.12	20.6651
741.826	20.5573
741.532	20.4425
741.235	20.3316
740.941	20.2187
740.647	20.1102
740.351	20.0048
740.057	19.9037
739.762	19.8115
739.466	19.7226
739.172	19.6498
738.878	19.578
738.581	19.5283
738.287	19.4757
737.993	19.4501
737.697	19.4183
737.402	19.417
737.108	19.4777
736.812	19.5113
736.517	19.5554
736.223	19.6089
735.927	19.6493
735.632	19.7095
735.336	19.7598
735.041	19.8635
734.747	19.9285
734.451	20.0273
734.156	20.0941
733.862	20.1646
733.565	20.228
733.271	20.2906
732.974	20.3464
732.68	20.3943
732.385	20.4331
732.089	20.4554
731.794	20.4796
731.498	20.4883
731.203	20.4954
730.909	20.4901
730.612	20.4816
730.318	20.4637
730.021	20.4406
729.727	20.4116
729.432	20.3755
729.136	20.3376
728.841	20.2418
728.544	20.201
728.25	20.1601
727.955	20.1197
727.659	20.081
727.364	20.0445
727.067	20.0113
726.773	19.9823
726.476	19.9588
726.181	19.9087
725.887	19.7396
725.59	19.5713
725.295	19.3993
724.999	19.2232
724.704	19.0573
724.407	18.8824
724.112	18.7118
723.816	18.5806
723.521	18.4359
723.226	18.1852
722.929	18.1849
722.634	18.2252
722.338	18.2855
722.043	18.7722
721.746	19.0731
721.451	19.3159
721.154	19.5728
720.86	19.8299
720.563	19.9777
720.268	19.8063
719.971	19.8485
719.676	19.8709
719.379	19.9173
719.084	19.9601
718.787	20.0107
718.492	20.0701
718.197	20.1244
717.901	20.1941
717.606	20.3002
717.309	20.2314
717.014	20.0871
716.717	19.9436
716.422	19.8179
716.125	19.6813
715.83	19.599
715.533	19.5009
715.236	19.4861
714.941	19.657
714.643	19.8905
714.348	20.1262
714.051	20.4263
713.756	20.7762
713.459	20.8715
713.164	20.8475
712.867	20.3242
712.572	19.9819
712.275	18.8532
711.98	18.5271
711.682	18.3955
711.387	18.5697
711.09	19.2813
710.795	19.6112
710.498	19.8794
710.203	20.0743
709.905	20.2699
709.608	20.2434
709.313	20.2304
709.016	20.2068
708.72	20.2032
708.423	20.1851
708.128	20.2607
707.831	20.3042
707.535	20.1168
707.238	19.9482
706.941	19.7874
706.645	19.6392
706.348	19.5076
706.053	19.4129
705.755	19.2098
705.458	19.1518
705.163	19.1153
704.865	19.1004
704.57	19.1017
704.273	19.1137
703.977	19.1381
703.68	19.1735
703.382	19.1797
703.087	19.2651
702.789	19.3505
702.494	19.4346
702.197	19.5163
701.899	19.594
701.604	19.667
701.306	19.7241
701.011	19.7032
700.713	19.685
700.416	19.6688
700.12	19.6544
699.823	19.641
699.527	19.627
699.229	19.6118
698.932	19.5943
698.636	19.5737
698.339	19.5495
698.041	19.5183
697.745	19.4691
697.448	19.4206
697.15	19.3515
696.855	19.2856
696.557	19.1986
696.261	19.1162
695.964	19.0134
695.666	18.9174
695.37	18.8059
695.073	18.7027
694.775	18.6056
694.479	18.5193
694.181	18.4313
693.884	18.3521
693.588	18.2767
693.29	18.2072
692.992	18.1465
692.697	18.0888
692.399	18.0441
692.101	17.9999
691.805	17.9719
691.508	17.9548
691.21	17.9486
690.914	17.9532
690.616	17.9669
690.318	17.9891
690.022	18.019
689.724	18.0564
689.427	18.1004
689.131	18.1506
688.833	18.2064
688.535	18.2669
688.237	18.3318
687.941	18.4005
687.643	18.4728
687.345	18.5536
687.049	18.6296
686.751	18.7118
686.453	18.7889
686.157	18.8699
685.859	18.9465
685.561	19.0251
685.263	19.1006
684.967	19.1747
684.669	19.2474
684.371	19.3149
684.073	19.3829
683.777	19.4416
683.479	19.503
683.181	19.5614
682.885	19.6328
682.587	19.6784
682.289	19.7546
681.99	19.7626
681.694	19.7417
681.396	19.7279
681.098	19.6885
680.8	19.6524
680.504	19.5958
680.206	19.5376
679.907	19.4663
679.609	19.3896
679.313	19.3097
679.015	19.2214
678.716	19.1381
678.418	19.0443
678.122	18.9275
677.824	18.8366
677.525	18.7825
677.227	18.5956
676.929	18.6166
676.633	18.6463
676.334	18.6906
676.036	18.7376
675.738	18.8079
675.441	19.0885
675.143	19.2318
674.845	19.3996
674.546	19.5141
674.248	19.4653
673.951	19.4111
673.653	19.3557
673.355	19.3168
673.056	19.2752
672.758	19.2527
672.461	19.2258
672.163	19.2202
671.864	19.2276
671.566	19.2468
671.268	19.277
670.971	19.317
670.672	19.3657
670.374	19.4221
670.076	19.4841
669.777	19.5503
669.478	19.5149
669.182	19.5098
668.883	19.4794
668.585	19.4717
668.286	19.4488
667.988	19.439
667.689	19.4261
667.392	19.4007
667.094	19.4063
666.795	19.4033
666.497	19.4285
666.198	19.4425
665.899	19.3529
665.601	19.4778
665.304	19.5988
665.005	19.7625
664.707	19.982
664.408	20.1398
664.109	20.2977
663.81	20.3732
663.512	20.4063
663.215	20.4281
662.916	20.4614
662.617	20.4842
662.319	20.5188
662.02	20.5442
661.721	20.5812
661.422	20.6118
661.123	20.6515
660.827	20.6872
660.528	20.5273
660.229	20.4063
659.93	20.2846
659.631	20.1725
659.332	20.0547
659.034	19.9556
658.735	19.8459
658.436	19.7616
658.139	19.662
657.84	19.5887
657.541	19.499
657.242	19.4351
656.943	19.3561
656.644	19.3018
656.345	19.2586
656.046	19.258
655.747	19.222
655.448	19.1924
655.149	19.1673
654.85	19.1504
654.553	19.137
654.254	19.1329
653.955	19.1318
653.656	19.0702
653.357	19.0849
653.058	19.111
652.759	19.1445
652.46	19.1891
652.161	19.2414
651.861	19.3038
651.562	19.3746
651.263	19.4537
650.964	19.5423
650.665	19.6386
650.366	19.743
650.067	19.8242
649.767	19.8031
649.468	19.836
649.169	19.8195
648.872	19.6671
648.573	19.7318
648.273	19.8198
647.974	19.9067
647.675	20.0072
647.376	20.1137
647.076	20.2308
646.777	20.3452
646.478	20.474
646.178	20.5916
645.879	20.76
645.58	20.8647
645.28	20.9672
644.981	21.0569
644.682	21.1357
644.382	21.201
644.083	21.2519
643.784	21.2904
643.484	21.3173
643.185	21.2944
642.885	21.2562
642.586	21.2028
642.287	21.1617
641.987	21.108
641.688	21.0569
641.388	20.9972
641.089	20.9348
640.789	20.8674
640.49	20.7981
640.19	20.7272
639.891	20.6559
639.591	20.5865
639.292	20.5175
638.992	20.4547
638.691	20.392
638.391	20.3406
638.091	20.2877
637.792	20.2512
637.492	20.2098
637.193	20.1884
636.893	20.1593
636.593	20.1523
636.294	20.1548
635.994	20.1662
635.695	20.2249
635.395	20.2534
635.095	20.2862
634.796	20.3226
634.496	20.352
634.196	20.3953
633.896	20.4332
633.597	20.483
633.297	20.5356
632.995	20.5906
632.695	20.6481
632.396	20.7078
632.096	20.7698
631.796	20.834
631.496	20.8996
631.197	20.9663
630.897	21.0334
630.597	21.1023
630.297	21.165
629.997	21.2289
629.697	21.286
629.396	21.3436
629.096	21.3947
628.796	21.4464
628.496	21.4975
628.196	21.5497
627.896	21.6018
627.596	21.6522
627.296	21.6819
626.996	21.7253
626.694	21.7847
626.394	21.7852
626.094	21.8245
625.794	21.8217
625.495	21.8296
625.195	21.7869
624.895	21.7157
624.594	21.6463
624.292	21.556
623.992	21.4612
623.692	21.3546
623.392	21.2398
623.092	21.1237
622.792	20.9976
622.492	20.8781
622.19	20.7481
621.89	20.6317
621.59	20.5059
621.29	20.3842
620.99	20.287
620.689	20.1833
620.389	20.1068
620.087	20.03
619.787	19.9787
619.487	19.9314
619.186	19.9086
618.886	19.8948
618.586	20.0276
618.284	20.0974
617.984	20.1724
617.683	20.3019
617.383	20.4059
617.083	20.5003
616.783	20.4993
616.48	20.3716
616.18	20.2398
615.88	20.1107
615.579	19.9758
615.279	19.849
614.977	19.7128
614.676	19.5932
614.376	19.463
614.076	19.3678
613.775	19.2689
613.473	19.2012
