#Acq. time (s)=	15
#Accumulations=	2
#Range (cm-¹)=	100...4000
#Windows=	1
#Auto scanning=	Off
#Autofocus=	Off
#Macrospot=	Off
#AutoExposure=	Off
#Spike filter=	Multiple accum.
#Delay time (s)=	0
#Binning=	1
#Readout mode=	Signal
#DeNoise=	Standard
#ICS correction=	On
#Dark correction=	Off
#Inst. Process=	On
#Detector Gain=	Best Dynamic
#Detector ADC=	50 kHz HS
#Detector temperature (°C)=	-60.09
#Instrument=	LabRAM HR Evol
#Detector=	SIN-EM FIVIS
#Objective=	x50_VIS_LWD
#Grating=	150 (500nm)
#ND Filter=	50%
#Laser=	633nm_Edge
#Hole=	100.021
#Temperature=	0
#Range=	Visible
#StageXY=	75x50mm Scan+
#StageZ=	Z motor
#X (µm)=	0
#Y (µm)=	0
#Z (µm)=	82.3
#Project=	20_05_11
#Sample=	BU20b
#Site=	
#Title=	BU20b-area1-cleavaged-clear-rim_150 (500nm)_633nm_Edge_50%_x50_VIS_LWD_H100um_15sX2
#Remark=	
#Date=	11.05.2020 17:45
#Acquired=	11.05.2020 17:45:00
100.862	1296.01
104.122	1297.57
107.378	1293.83
110.635	1295.71
113.889	1291.6
117.143	1292.25
120.394	1288.6
123.646	1288.25
126.894	1290.25
130.143	1287.86
133.388	1307.51
136.634	1338.91
139.878	1363.4
143.121	1371.51
146.361	1337.2
149.602	1314.27
152.84	1296.75
156.077	1290.16
159.313	1300.15
162.546	1315.49
165.78	1364.02
169.011	1421.59
172.242	1502.98
175.471	1569.84
178.699	1534.46
181.925	1473.56
185.149	1428.62
188.374	1405.15
191.596	1384.17
194.818	1359.12
198.037	1334.3
201.254	1316.08
204.472	1298.45
207.687	1289.67
210.903	1290.19
214.115	1289.43
217.326	1318.87
220.537	1347.38
223.746	1385.05
226.953	1408.8
230.16	1422.92
233.365	1405.74
236.568	1383.82
239.771	1361.96
242.972	1338.9
246.171	1310.95
249.371	1279.79
252.567	1263.17
255.762	1244.7
258.958	1236.54
262.151	1266.86
265.342	1293.78
268.533	1341.93
271.722	1442.7
274.91	1678.44
278.096	2086.66
281.282	2235.15
284.466	1971.54
287.648	1690.79
290.829	1588.54
294.01	1699.03
297.188	2037.66
300.365	2549.1
303.541	2547.93
306.716	2082.67
309.89	1731.02
313.061	1597.69
316.232	1515.1
319.401	1398.94
322.57	1336.43
325.737	1293.38
328.902	1257.97
332.066	1236.23
335.229	1219.99
338.392	1204.34
341.552	1188.8
344.711	1181.06
347.868	1175
351.024	1171.48
354.179	1169.69
357.335	1169.54
360.487	1169.19
363.638	1171.72
366.788	1174.66
369.936	1179.03
373.084	1182.23
376.23	1187.15
379.376	1192.91
382.519	1198.98
385.661	1206.36
388.802	1214.32
391.942	1221.88
395.08	1230.42
398.217	1236.53
401.353	1243.18
404.487	1246.8
407.62	1251.36
410.752	1249.41
413.884	1255.14
417.013	1265.41
420.141	1270.77
423.268	1298.63
426.394	1367.63
429.518	1457.43
432.641	1494.91
435.763	1368.9
438.883	1255.63
442.002	1210.65
445.12	1177.35
448.237	1164.32
451.352	1160.03
454.466	1152.65
457.579	1144.63
460.691	1151.37
463.801	1164.23
466.91	1187.56
470.018	1224.49
473.125	1275.77
476.23	1349.12
479.334	1451.31
482.437	1597.2
485.538	1715.63
488.638	1738.41
491.737	1686.26
494.834	1632.52
497.93	1544.19
501.026	1451.02
504.12	1357.08
507.212	1278.69
510.304	1213.33
513.394	1150.17
516.483	1121.68
519.571	1100.51
522.657	1091.43
525.743	1084.84
528.825	1082.34
531.908	1082.83
534.989	1077.49
538.07	1075.24
541.149	1072
544.227	1068.96
547.303	1066.04
550.377	1064.13
553.451	1060.71
556.524	1058.91
559.595	1053.25
562.666	1049.09
565.735	1045.38
568.801	1044.44
571.868	1034.62
574.933	1024.6
577.998	1030.19
581.061	1042.14
584.121	1034.67
587.181	1038.9
590.241	1060.97
593.299	1088.48
596.354	1106.14
599.41	1187.92
602.464	1259
605.517	1296.17
608.568	1208.34
611.618	1145.16
614.668	1113.09
617.716	1121.11
620.761	1167.47
623.807	1282.58
626.852	1443.61
629.895	1628.44
632.936	1691.94
635.977	1505.18
639.016	1368.05
642.053	1367.58
645.091	1484.64
648.127	1678.82
651.16	1673.34
654.193	1421.22
657.226	1249.69
660.256	1139.37
663.286	1075.56
666.314	1037.05
669.34	1012.31
672.367	991.168
675.392	981.098
678.414	977.511
681.437	972.614
684.457	972.56
687.477	976.623
690.496	978.639
693.513	981.255
696.529	982.13
699.543	979.467
702.558	966.111
705.571	961.816
708.581	957.913
711.592	954.942
714.6	953.846
717.608	954.25
720.614	955.034
723.62	955.732
726.624	952.952
729.626	949.689
732.628	948.663
735.628	947.818
738.628	948.105
741.625	948.374
744.623	949.099
747.618	949.601
750.613	951.309
753.605	953.543
756.598	956.625
759.588	960.099
762.578	964.855
765.566	972.603
768.554	978.429
771.539	983.012
774.525	988.819
777.508	995.963
780.49	1005.75
783.472	1022.75
786.451	1043.83
789.431	1079.27
792.408	1123.93
795.385	1225.54
798.36	1310.86
801.333	1390.01
804.307	1440.96
807.278	1361.32
810.25	1281.18
813.219	1194.23
816.186	1137.22
819.154	1083.08
822.119	1039.75
825.085	1001.39
828.048	986.319
831.01	976.309
833.972	970.871
836.931	970.822
839.889	970.469
842.848	971.061
845.804	968.287
848.759	966.329
851.714	964.545
854.666	963.139
857.617	962.479
860.569	963.13
863.518	964.09
866.465	964.288
869.413	964.673
872.359	965.045
875.303	965.331
878.246	965.125
881.19	964.477
884.13	963.637
887.07	961.347
890.009	960.305
892.947	956.347
895.883	954.43
898.818	953.591
901.752	952.401
904.686	951.962
907.618	950.282
910.548	949.669
913.478	949.835
916.406	950.927
919.334	951.074
922.26	952.1
925.184	954.199
928.108	956.593
931.03	959.615
933.953	962.442
936.873	965.693
939.792	969.597
942.709	973.035
945.626	976.48
948.542	979.841
951.457	982.767
954.37	983.426
957.282	986.359
960.193	988.757
963.103	989.353
966.012	989.109
968.919	984.482
971.825	992.078
974.731	997.807
977.636	998.546
980.539	999.841
983.441	1006.48
986.341	1015.59
989.241	1038.38
992.139	1072.19
995.036	1125.17
997.932	1179.55
1000.83	1260.05
1003.72	1380.76
1006.61	1562.61
1009.51	1833.46
1012.4	2141.45
1015.29	2211.72
1018.17	2091.96
1021.06	1798.55
1023.95	1558.74
1026.83	1407.46
1029.71	1316.17
1032.6	1291.5
1035.48	1324.82
1038.36	1413.99
1041.24	1560.93
1044.12	1762.6
1046.99	1996.23
1049.87	2060.43
1052.74	1962.16
1055.62	1740.8
1058.49	1694.03
1061.36	1608.59
1064.23	1485.67
1067.1	1365.17
1069.97	1269.63
1072.84	1189.63
1075.7	1130.05
1078.56	1097.89
1081.43	1075.79
1084.29	1067.21
1087.15	1063.43
1090.01	1072.59
1092.87	1078.17
1095.73	1093.07
1098.58	1065.39
1101.44	1151.58
1104.29	1262.48
1107.15	1448.62
1110	1613.15
1112.85	1706.46
1115.7	1583.66
1118.55	1444.42
1121.4	1322.53
1124.24	1238.6
1127.09	1165
1129.94	1120.62
1132.78	1089.8
1135.62	1065.1
1138.46	1048.03
1141.3	1036.61
1144.14	1025.1
1146.98	1021.61
1149.81	1015.87
1152.65	1016.21
1155.49	1016.33
1158.32	1014.86
1161.15	1018.19
1163.98	1018.6
1166.81	1024.5
1169.64	1030.39
1172.47	1040.46
1175.3	1050.7
1178.12	1064.64
1180.95	1085.64
1183.77	1112.97
1186.59	1144.59
1189.41	1211.71
1192.23	1217.35
1195.05	1215.67
1197.87	1182.94
1200.69	1152.46
1203.5	1123.7
1206.32	1101.77
1209.13	1080.57
1211.94	1067.53
1214.75	1057.11
1217.56	1046.82
1220.37	1039.93
1223.18	1032.52
1225.99	1027.27
1228.79	1023.09
1231.6	1019
1234.4	1016.07
1237.21	1010.93
1240.01	1009.09
1242.81	1007.24
1245.61	1006.71
1248.41	1006.07
1251.2	1005.4
1254	1005.25
1256.79	1005.57
1259.59	1005.96
1262.38	1005.96
1265.17	1005.42
1267.96	1004.26
1270.75	1003.11
1273.54	1002.43
1276.33	1001.65
1279.12	1001.21
1281.9	1000.25
1284.69	998.468
1287.47	998.443
1290.25	998.565
1293.03	998.784
1295.81	999.706
1298.59	1002.4
1301.37	1004.89
1304.15	1007.18
1306.92	1010.06
1309.7	1011.49
1312.47	1012.92
1315.24	1013.93
1318.01	1014.4
1320.78	1015.38
1323.55	1015.62
1326.32	1015.29
1329.09	1013.19
1331.85	1010.69
1334.62	1010.29
1337.38	1009.62
1340.15	1010
1342.91	1014.82
1345.67	1017.21
1348.43	1019.14
1351.19	1020.43
1353.95	1021.42
1356.7	1019.25
1359.46	1015.01
1362.21	1012.72
1364.97	1006.78
1367.72	1002.89
1370.47	999.65
1373.22	997.516
1375.97	996.232
1378.72	996.505
1381.46	996.582
1384.21	998.286
1386.96	998.801
1389.7	999.68
1392.44	1000.6
1395.18	1001.59
1397.92	1002.54
1400.66	1002.88
1403.4	1003.73
1406.14	1005.71
1408.88	1007.34
1411.61	1007.92
1414.35	1008.92
1417.08	1008.91
1419.81	1007.47
1422.54	1006.91
1425.27	1007.06
1428	1006.72
1430.73	1007.53
1433.46	1008.36
1436.18	1008.56
1438.91	1009.64
1441.63	1008.99
1444.36	1008
1447.08	1007.25
1449.8	1006.89
1452.52	1005.63
1455.24	1004.84
1457.96	1003.94
1460.67	1002.54
1463.39	1000.43
1466.1	998.477
1468.82	996.756
1471.53	995.651
1474.24	994.7
1476.95	993.549
1479.66	993.229
1482.37	992.909
1485.08	994.263
1487.78	996.175
1490.49	998.026
1493.19	1001.68
1495.9	1005.13
1498.6	1008.76
1501.3	1011.91
1504	1014.01
1506.7	1015.87
1509.4	1017.14
1512.09	1017.5
1514.79	1018.08
1517.49	1018.67
1520.18	1020.42
1522.87	1021.32
1525.56	1020.47
1528.26	1019.48
1530.95	1018.18
1533.63	1017.22
1536.32	1016.94
1539.01	1015.79
1541.7	1014.49
1544.38	1013.73
1547.06	1013.34
1549.75	1012.83
1552.43	1012.62
1555.11	1013.09
1557.79	1014.03
1560.47	1015.38
1563.15	1016.86
1565.82	1019.32
1568.5	1021.76
1571.17	1023.61
1573.85	1025.89
1576.52	1027.69
1579.19	1028.72
1581.86	1031.35
1584.53	1032.79
1587.2	1033.75
1589.87	1034.43
1592.54	1033.39
1595.2	1032.02
1597.86	1029.63
1600.53	1026.71
1603.19	1024.84
1605.85	1023.64
1608.51	1022.71
1611.17	1022.11
1613.83	1021.43
1616.49	1021.06
1619.15	1020.39
1621.8	1020.37
1624.46	1020.66
1627.11	1021.37
1629.76	1021.61
1632.41	1021.17
1635.06	1021.37
1637.71	1020.56
1640.36	1019.54
1643.01	1017.46
1645.66	1012.74
1648.3	1011.15
1650.95	1009.91
1653.59	1008.01
1656.23	1008.21
1658.87	1008.44
1661.52	1009.06
1664.16	1010.22
1666.79	1011.08
1669.43	1012.28
1672.07	1017.79
1674.7	1020.29
1677.34	1021.81
1679.97	1022.45
1682.6	1022.36
1685.24	1021.73
1687.87	1020.46
1690.5	1018.41
1693.13	1014.91
1695.75	1011.56
1698.38	1009.97
1701.01	1008.2
1703.63	1008.44
1706.25	1007.18
1708.88	1008.49
1711.5	1007.86
1714.12	1007.34
1716.74	1008
1719.36	1007.92
1721.98	1006.5
1724.59	1005.36
1727.21	1004.73
1729.82	1003.97
1732.44	1003.07
1735.05	1002.2
1737.66	1001.98
1740.27	1001.26
1742.89	1000.37
1745.49	999.146
1748.1	998.939
1750.71	999.639
1753.31	1001.19
1755.92	1002.27
1758.52	1003.14
1761.13	1004.09
1763.73	1004.03
1766.33	1003.92
1768.93	1003.3
1771.53	1001.14
1774.13	998.65
1776.73	996.726
1779.32	994.675
1781.92	992.703
1784.51	991.125
1787.11	991.674
1789.7	991.233
1792.29	992.091
1794.88	993.424
1797.47	995.077
1800.06	996.754
1802.65	997.982
1805.23	998.157
1807.82	998.365
1810.41	998.433
1812.99	997.973
1815.57	997.912
1818.15	996.523
1820.74	996.498
1823.32	995.99
1825.9	995.466
1828.47	994.707
1831.05	993.865
1833.63	993.387
1836.2	993.585
1838.78	994.174
1841.35	994.181
1843.92	993.946
1846.49	994.225
1849.06	993.508
1851.63	992.937
1854.2	992.355
1856.77	990.649
1859.34	988.837
1861.9	987.618
1864.47	987.58
1867.03	987.858
1869.59	987.168
1872.16	987.043
1874.72	986.179
1877.28	984.365
1879.84	982.475
1882.39	979.697
1884.95	977.195
1887.51	976.329
1890.06	974.033
1892.62	973.804
1895.17	974.701
1897.72	975.724
1900.27	976.628
1902.82	977.311
1905.37	977.329
1907.92	977.58
1910.47	978.511
1913.02	979.776
1915.56	980.714
1918.11	982.298
1920.65	983.473
1923.2	984.646
1925.74	986.718
1928.28	986.709
1930.82	986.613
1933.36	986.303
1935.9	986.041
1938.43	985.68
1940.97	985.645
1943.51	987.904
1946.04	985.839
1948.57	982.52
1951.11	981.906
1953.64	981.512
1956.17	981.034
1958.7	981.659
1961.23	982.167
1963.76	982.469
1966.28	982.245
1968.81	982.144
1971.33	981.64
1973.86	980.124
1976.38	979.198
1978.91	978.244
1981.43	976.484
1983.95	975.068
1986.47	972.647
1988.99	970.999
1991.5	970.277
1994.02	970.358
1996.54	969.722
1999.05	970.212
2001.57	970.507
2004.08	970.96
2006.59	971.952
2009.1	973.241
2011.61	974.386
2014.12	975.806
2016.63	976.67
2019.14	977.918
2021.65	978.624
2024.15	978.76
2026.66	978.522
2029.16	979.117
2031.66	980.025
2034.17	981.324
2036.67	981.351
2039.17	982.275
2041.67	982.927
2044.17	982.385
2046.66	981.499
2049.16	981.261
2051.66	980.053
2054.15	979.773
2056.65	978.634
2059.14	977.015
2061.63	975.85
2064.12	975.598
2066.61	974.783
2069.1	974.846
2071.59	975.254
2074.08	975.33
2076.56	975.667
2079.05	976.841
2081.53	976.392
2084.02	975.85
2086.5	974.342
2088.98	974.368
2091.46	974.057
2093.94	974.164
2096.42	974.93
2098.9	975.308
2101.38	977.434
2103.86	980.642
2106.33	982.892
2108.81	985.353
2111.28	987.693
2113.76	985.779
2116.23	985.853
2118.7	985.631
2121.17	983.967
2123.64	981.421
2126.11	978.148
2128.57	975.094
2131.04	973.654
2133.51	972.756
2135.97	971.334
2138.44	971.217
2140.9	968.416
2143.36	966.046
2145.82	964.793
2148.28	963.966
2150.74	964.702
2153.2	964.895
2155.66	966.459
2158.12	968.266
2160.57	970.081
2163.03	971.099
2165.48	972.508
2167.94	973.106
2170.39	972.991
2172.84	972.166
2175.29	970.763
2177.74	968.483
2180.19	967.323
2182.64	966.011
2185.09	963.91
2187.53	961.342
2189.98	960.266
2192.42	959.723
2194.86	960.354
2197.31	962.509
2199.75	965.817
2202.19	969.915
2204.63	972.162
2207.07	975.618
2209.51	980.214
2211.95	983.158
2214.38	984.077
2216.82	984.566
2219.25	984.108
2221.69	983.501
2224.12	983.114
2226.55	981.804
2228.98	980.481
2231.41	979.215
2233.84	978.441
2236.27	977.851
2238.7	977.816
2241.13	979.775
2243.55	982.111
2245.98	985.385
2248.4	986.844
2250.83	986.459
2253.25	984.756
2255.67	982.467
2258.09	979.519
2260.51	977.099
2262.93	974.823
2265.35	973.155
2267.76	971.521
2270.18	970.599
2272.6	968.419
2275.01	966.996
2277.43	963.797
2279.84	961.255
2282.25	959.232
2284.66	957.987
2287.07	957.855
2289.48	959.438
2291.89	961.195
2294.3	961.906
2296.7	961.626
2299.11	960.162
2301.52	960.934
2303.92	962.664
2306.32	963.485
2308.73	964.733
2311.13	966.13
2313.53	967.447
2315.93	967.44
2318.33	965.226
2320.73	964.254
2323.12	963.701
2325.52	963.292
2327.92	964.037
2330.31	964.98
2332.7	966.586
2335.1	967.334
2337.49	967.262
2339.88	967.462
2342.27	968.875
2344.66	971.323
2347.05	972.651
2349.44	974.182
2351.83	975.759
2354.21	976.937
2356.6	977.407
2358.98	977.603
2361.36	975.693
2363.75	974.04
2366.13	971.519
2368.51	968.372
2370.89	964.868
2373.27	960.954
2375.65	957.548
2378.03	954.83
2380.4	952.167
2382.78	950.554
2385.15	948.627
2387.53	948.439
2389.9	947.699
2392.28	947.273
2394.65	946.738
2397.02	946.733
2399.39	945.896
2401.76	945.978
2404.12	945.43
2406.49	945.701
2408.86	946.888
2411.23	948.63
2413.59	949.655
2415.95	950.217
2418.32	951.028
2420.68	952.364
2423.04	952.719
2425.4	951.959
2427.76	951.88
2430.12	952.492
2432.48	950.106
2434.84	947.949
2437.19	945.662
2439.55	944.234
2441.9	944.687
2444.26	946.69
2446.61	947.634
2448.96	949.501
2451.32	951.408
2453.67	948.546
2456.02	944.839
2458.37	941.845
2460.71	939.095
2463.06	936.478
2465.41	935.269
2467.75	934.237
2470.1	933.436
2472.44	932.973
2474.79	930.642
2477.13	929.52
2479.47	929.325
2481.81	929.301
2484.15	930.022
2486.49	930.889
2488.83	933.537
2491.17	936.94
2493.5	939.672
2495.84	941.763
2498.17	944.465
2500.51	946.336
2502.84	947.145
2505.17	947.426
2507.5	947.679
2509.84	946.797
2512.17	944.908
2514.5	941.968
2516.82	938.549
2519.15	934.736
2521.48	931.405
2523.8	929.292
2526.13	926.268
2528.45	923.561
2530.78	921.327
2533.1	921.242
2535.42	922.353
2537.74	923.798
2540.06	924.995
2542.38	927.858
2544.7	927.964
2547.02	926.489
2549.33	925.597
2551.65	924.953
2553.97	924.539
2556.28	923.828
2558.59	923.655
2560.91	921.544
2563.22	919.741
2565.53	918.769
2567.84	917.69
2570.15	916.819
2572.46	915.654
2574.77	914.124
2577.07	913.595
2579.38	914.021
2581.68	916.433
2583.99	922.951
2586.29	924.486
2588.6	923.48
2590.9	921.21
2593.2	918.073
2595.5	915.415
2597.8	913.987
2600.1	910.404
2602.4	907.225
2604.69	904.927
2606.99	905.013
2609.29	903.778
2611.58	902.807
2613.88	901.518
2616.17	900.394
2618.46	899.795
2620.75	898.785
2623.04	898.339
2625.33	898.37
2627.62	898.361
2629.91	898.374
2632.2	897.974
2634.49	897.733
2636.77	897.246
2639.06	897.391
2641.34	898.057
2643.63	898.3
2645.91	898.284
2648.19	898.547
2650.47	898.185
2652.75	897.678
2655.03	897.11
2657.31	896.509
2659.59	896.196
2661.87	896.013
2664.14	896.192
2666.42	896.588
2668.69	898.057
2670.97	896.543
2673.24	897.675
2675.51	897.995
2677.79	897.394
2680.06	896.694
2682.33	895.935
2684.6	896.37
2686.87	896.616
2689.13	896.737
2691.4	896.519
2693.67	896.075
2695.93	895.95
2698.2	896.787
2700.46	893.911
2702.72	890.197
2704.99	886.104
2707.25	881.896
2709.51	879.334
2711.77	876.193
2714.03	874.544
2716.28	872.386
2718.54	870.691
2720.8	868.748
2723.05	866.812
2725.31	866.783
2727.56	866.362
2729.82	866.975
2732.07	868.124
2734.32	869.807
2736.57	870.951
2738.83	873.218
2741.07	874.889
2743.32	876.01
2745.57	876.974
2747.82	875.792
2750.07	875.088
2752.31	873.321
2754.56	872.463
2756.8	871.344
2759.04	870.475
2761.29	870.221
2763.53	869.707
2765.77	870.295
2768.01	871.906
2770.25	872.25
2772.49	873.435
2774.73	874.131
2776.96	874.771
2779.2	873.883
2781.44	873.165
2783.67	872.326
2785.9	872.814
2788.14	871.842
2790.37	871.599
2792.6	872.007
2794.83	871.79
2797.06	870.991
2799.29	870.596
2801.52	870.869
2803.75	871.311
2805.98	871.899
2808.2	872.02
2810.43	871.444
2812.65	869.978
2814.88	869.484
2817.1	869.499
2819.32	869.909
2821.54	869.667
2823.77	870.967
2825.99	871.503
2828.2	872.376
2830.42	872.613
2832.64	871.59
2834.86	869.705
2837.08	868.091
2839.29	865.811
2841.51	864.087
2843.72	863.826
2845.93	864.085
2848.15	863.202
2850.36	863.718
2852.57	863.28
2854.78	863.197
2856.99	863.889
2859.2	864.841
2861.41	865.012
2863.61	865.678
2865.82	865.066
2868.02	862.935
2870.23	858.837
2872.43	857.305
2874.64	856.184
2876.84	855.796
2879.04	855.953
2881.24	856.821
2883.44	858.148
2885.64	858.69
2887.84	858.127
2890.04	858.879
2892.24	859.438
2894.43	861.346
2896.63	862.887
2898.82	863.844
2901.02	864.956
2903.21	865.875
2905.41	865.779
2907.6	864.735
2909.79	862.781
2911.98	861.85
2914.17	861.733
2916.36	862.154
2918.55	863.42
2920.74	863.159
2922.92	862.784
2925.11	862.427
2927.29	864.647
2929.48	865.068
2931.66	864.163
2933.84	862.809
2936.03	860.924
2938.21	858.728
2940.39	855.43
2942.57	853.51
2944.75	852.422
2946.93	850.49
2949.11	848.393
2951.28	847.054
2953.46	845.854
2955.64	845.828
2957.81	845.924
2959.98	846.825
2962.16	848.338
2964.33	855.566
2966.5	856.305
2968.67	857.143
2970.84	858.045
2973.01	849.633
2975.18	849.29
2977.35	848.726
2979.52	852.384
2981.68	866.532
2983.85	870.35
2986.02	868.744
2988.18	868.288
2990.34	867.824
2992.51	867.041
2994.67	866.395
2996.83	858.157
2998.99	852.634
3001.15	850.886
3003.31	848.973
3005.47	851.287
3007.63	853.621
3009.78	855.3
3011.94	855.797
3014.1	855.65
3016.25	855.331
3018.41	851.15
3020.56	849.062
3022.71	849.021
3024.86	851.05
3027.02	853.116
3029.17	854.26
3031.32	856.944
3033.47	854.993
3035.61	852.793
3037.76	851.572
3039.91	851.215
3042.05	852.159
3044.2	853.848
3046.34	854.964
3048.49	855.531
3050.63	855.43
3052.77	854.864
3054.92	853.594
3057.06	851.919
3059.2	849.769
3061.34	847.938
3063.48	847.335
3065.61	847.453
3067.75	848.499
3069.89	848.297
3072.02	849.689
3074.16	850.693
3076.29	849.408
3078.43	849.187
3080.56	848.229
3082.69	846.064
3084.82	844.165
3086.96	844.159
3089.09	843.975
3091.22	842.833
3093.34	842.072
3095.47	840.319
3097.6	839.787
3099.73	839.583
3101.85	840.496
3103.98	842.137
3106.1	843.859
3108.23	846.003
3110.35	847.705
3112.47	850.184
3114.59	851.382
3116.71	852.431
3118.83	852.317
3120.95	851.706
3123.07	850.992
3125.19	849.642
3127.31	848.539
3129.42	847.084
3131.54	845.001
3133.65	840.234
3135.77	838.733
3137.88	837.811
3140	838.02
3142.11	839.456
3144.22	841.153
3146.33	847.626
3148.44	854.618
3150.55	854.701
3152.66	853.005
3154.77	852.008
3156.87	850.964
3158.98	850.286
3161.09	850.21
3163.19	850.309
3165.29	848.357
3167.4	845.38
3169.5	841.93
3171.6	840.327
3173.71	839.548
3175.81	839.162
3177.91	838.94
3180.01	839.546
3182.11	840.871
3184.2	843.042
3186.3	844.451
3188.4	843.485
3190.49	842.7
3192.59	842.405
3194.68	842.347
3196.78	842.927
3198.87	844.081
3200.96	845.51
3203.05	847.276
3205.15	849.286
3207.24	851.295
3209.33	853.298
3211.41	855.283
3213.5	856.963
3215.59	857.748
3217.68	860.49
3219.76	861.117
3221.85	855.698
3223.93	855.699
3226.02	855.993
3228.1	856.814
3230.18	858.259
3232.27	860.253
3234.35	862.685
3236.43	865.17
3238.51	865.191
3240.59	866.139
3242.66	863.533
3244.74	863.755
3246.82	864.434
3248.9	866.245
3250.97	867.079
3253.05	867.567
3255.12	867.783
3257.2	869.342
3259.27	869.712
3261.34	867.395
3263.41	864.773
3265.48	862.971
3267.55	860.164
3269.62	857.353
3271.69	857.044
3273.76	854.892
3275.83	851.837
3277.89	847.721
3279.96	844.227
3282.02	840.73
3284.09	838.338
3286.15	835.026
3288.22	832.576
3290.28	831.721
3292.34	832.258
3294.4	833.357
3296.46	835.771
3298.52	838.087
3300.58	840.081
3302.64	841.941
3304.7	842.972
3306.75	844.305
3308.81	845.956
3310.87	846.467
3312.92	846.893
3314.98	846.715
3317.03	850.144
3319.08	851.641
3321.14	848.759
3323.19	846.323
3325.24	845.461
3327.29	846.132
3329.34	849.006
3331.39	851.965
3333.44	859.184
3335.48	871.411
3337.53	888.205
3339.58	918.381
3341.62	948.886
3343.67	982.821
3345.71	1021.5
3347.75	1070.92
3349.8	1117.92
3351.84	1174.71
3353.88	1241.14
3355.92	1313.54
3357.96	1399.37
3360	1514.44
3362.04	1655.31
3364.08	1844.05
3366.11	2052.17
3368.15	2268.42
3370.19	2505.41
3372.22	2727.89
3374.26	2929.6
3376.29	3109.62
3378.32	3207.88
3380.36	3214.76
3382.39	3043.99
3384.42	2766.59
3386.45	2453.95
3388.48	2132.19
3390.51	1881.04
3392.54	1589.23
3394.57	1506.32
3396.59	1412.7
3398.62	1339.52
3400.65	1270.46
3402.67	1224.77
3404.7	1193.78
3406.72	1170.85
3408.74	1154.65
3410.77	1121.53
3412.79	1107.82
3414.81	1096.27
3416.83	1086.19
3418.85	1079.55
3420.87	1075.65
3422.89	1062.1
3424.91	1041.69
3426.92	1020.42
3428.94	991.964
3430.96	963.089
3432.97	930.536
3434.98	903.174
3437	880.922
3439.01	863.504
3441.02	848.273
3443.04	837.702
3445.05	828.791
3447.06	819.024
3449.07	810.948
3451.08	806.109
3453.09	803.606
3455.09	801.024
3457.1	799.107
3459.11	799.697
3461.11	800.358
3463.12	802.645
3465.13	805.143
3467.13	806.086
3469.13	808.258
3471.13	809.734
3473.14	809.931
3475.14	809.17
3477.14	810.006
3479.14	808.646
3481.14	808.457
3483.14	808.017
3485.14	807.86
3487.13	808.991
3489.13	809.996
3491.13	810.349
3493.12	810.449
3495.12	809.773
3497.11	809.458
3499.1	809.219
3501.1	809.651
3503.09	808.407
3505.08	806.937
3507.07	805.339
3509.06	804.211
3511.05	803.438
3513.04	803.256
3515.03	801.976
3517.02	799.187
3519	796.494
3520.99	795.001
3522.98	794.228
3524.96	792.286
3526.95	789.366
3528.93	787.811
3530.91	786.36
3532.89	784.728
3534.88	783.04
3536.86	782.404
3538.84	782.118
3540.82	782.265
3542.8	781.344
3544.78	779.627
3546.75	776.538
3548.73	774.621
3550.71	772.801
3552.68	772.152
3554.66	771.652
3556.63	771.236
3558.61	771.13
3560.58	769.248
3562.55	768.647
3564.53	768.878
3566.5	770.131
3568.47	772.042
3570.44	772.023
3572.41	772.132
3574.38	769.874
3576.34	767.901
3578.31	767.615
3580.28	767.646
3582.25	766.946
3584.21	766.392
3586.18	766.835
3588.14	766.62
3590.1	762.756
3592.07	759.238
3594.03	755.252
3595.99	749.766
3597.95	744.781
3599.91	740.605
3601.87	739.198
3603.83	737.221
3605.79	735.995
3607.75	735.541
3609.71	735.944
3611.66	738.988
3613.62	740.668
3615.58	739.685
3617.53	739.692
3619.49	739.261
3621.44	737.573
3623.39	737.745
3625.34	736.29
3627.3	734.871
3629.25	729.706
3631.2	727.178
3633.15	725.102
3635.1	723.373
3637.05	721.737
3638.99	719.248
3640.94	717.069
3642.89	716.227
3644.83	716.475
3646.78	717.478
3648.72	718.91
3650.67	719.657
3652.61	720.769
3654.55	723.258
3656.5	723.846
3658.44	722.623
3660.38	718.784
3662.32	717.505
3664.26	717.391
3666.2	717.792
3668.14	715.82
3670.07	712.323
3672.01	708.949
3673.95	705.958
3675.88	702.924
3677.82	700.669
3679.75	698.49
3681.69	696.736
3683.62	694.105
3685.55	693.896
3687.49	694.223
3689.42	694.643
3691.35	695.359
3693.28	696.128
3695.21	698.296
3697.14	699.791
3699.07	700.131
3700.99	700.707
3702.92	704.327
3704.85	705.627
3706.77	705.175
3708.7	703.306
3710.62	702.447
3712.55	700.656
3714.47	699.023
3716.39	696.802
3718.32	694.774
3720.24	691.901
3722.16	689.892
3724.08	688.39
3726	687.188
3727.92	685.446
3729.84	683.868
3731.76	684.005
3733.67	683.905
3735.59	681.034
3737.51	678.557
3739.42	676.933
3741.34	675.887
3743.25	675.479
3745.16	676.751
3747.08	676.187
3748.99	675.126
3750.9	674.803
3752.81	675.667
3754.72	679.267
3756.63	680.629
3758.54	678.892
3760.45	678.078
3762.36	676.511
3764.27	676.836
3766.17	677.178
3768.08	677.739
3769.99	676.499
3771.89	674.643
3773.79	672.258
3775.7	668.567
3777.6	665.986
3779.5	665.563
3781.41	665.143
3783.31	665.156
3785.21	668.515
3787.11	670.285
3789.01	672.55
3790.91	670.176
3792.81	657.289
3794.7	655.004
3796.6	655.484
3798.5	657.53
3800.39	664.706
3802.29	672.188
3804.18	676.061
3806.08	676.654
3807.97	675.645
3809.86	674.007
3811.76	666.221
3813.65	658.944
3815.54	652.114
3817.43	646.22
3819.32	641.26
3821.21	638.835
3823.1	642.913
3824.99	646.55
3826.87	647.928
3828.76	648.65
3830.65	649.128
3832.53	652.19
3834.42	653.465
3836.3	652.563
3838.18	653.03
3840.07	651.725
3841.95	648.819
3843.83	648.717
3845.71	647.2
3847.6	647.863
3849.48	646.608
3851.36	646.26
3853.23	646.088
3855.11	646.718
3856.99	648.274
3858.87	650.411
3860.74	652.289
3862.62	653.072
3864.5	651.616
3866.37	650.675
3868.24	647.902
3870.12	645.799
3871.99	644.609
3873.86	640.071
3875.74	634.407
3877.61	630.117
3879.48	631.28
3881.35	632.969
3883.22	631.358
3885.09	630.965
3886.95	630.866
3888.82	631.119
3890.69	631.061
3892.56	631.437
3894.42	633.119
3896.29	636.65
3898.15	637.576
3900.02	637.264
3901.88	635.653
3903.74	634.763
3905.61	633.201
3907.47	633.633
3909.33	633.494
3911.19	632.616
3913.05	630.687
3914.91	629.773
3916.77	628.814
3918.63	625.769
3920.48	622.299
3922.34	619.375
3924.2	617.291
3926.05	615.833
3927.91	614.906
3929.76	614.148
3931.62	613.705
3933.47	613.578
3935.32	610.711
3937.18	608.447
3939.03	606.934
3940.88	605.909
3942.73	604.377
3944.58	604.537
3946.43	604.14
3948.28	604.439
3950.13	604.869
3951.97	606.586
3953.82	607.574
3955.67	608.71
3957.51	610.877
3959.36	612.162
3961.2	610.93
3963.05	609.805
3964.89	608.709
3966.74	603.748
3968.58	599.182
3970.42	595.35
3972.26	591.996
3974.1	588.883
3975.94	586.338
3977.78	584.109
3979.62	582.361
3981.46	581.35
3983.3	581.677
3985.13	581.533
3986.97	579.852
3988.81	578.956
3990.64	577.61
3992.48	576.356
3994.31	576.735
3996.15	576.62
3997.98	577.245
3999.81	581.86
