#Acq. time (s)=	15
#Accumulations=	2
#Range (cm-¹)=	100...4000
#Windows=	1
#Auto scanning=	Off
#Autofocus=	Off
#Macrospot=	Off
#AutoExposure=	Off
#Spike filter=	Single accum. (Size=4)
#Delay time (s)=	0
#Binning=	1
#Readout mode=	Signal
#DeNoise=	Standard
#ICS correction=	On
#Dark correction=	Off
#Inst. Process=	On
#Detector Gain=	Best Dynamic
#Detector ADC=	50 kHz HS
#Detector temperature (°C)=	-60.09
#Instrument=	LabRAM HR Evol
#Detector=	SIN-EM FIVIS
#Objective=	x50_VIS_LWD
#Grating=	150 (500nm)
#ND Filter=	100%
#Laser=	633nm_Edge
#Hole=	100.021
#Temperature=	0
#Range=	Visible
#StageXY=	75x50mm Scan+
#StageZ=	Z motor
#X (µm)=	0
#Y (µm)=	0
#Z (µm)=	-23.9
#Project=	20_05_11
#Sample=	BU19TS
#Site=	
#Title=	BU19TS-area5-samuelsonite_150 (500nm)_633nm_Edge_100%_x50_VIS_LWD_H100um_15sX2
#Remark=	
#Date=	11.05.2020 19:35
#Acquired=	11.05.2020 19:35:43
100.862	10346.7
104.122	10375
107.378	10327.5
110.635	10273.7
113.889	10216.8
117.143	10158.7
120.394	10105.2
123.646	10063
126.894	10027.9
130.143	9999.92
133.388	9977.13
136.634	9961.31
139.878	9950.16
143.121	9943.1
146.361	9939.73
149.602	9937.01
152.84	9937.16
156.077	9941.04
159.313	9949.98
162.546	9954.09
165.78	9955.77
169.011	9954.62
172.242	9950.43
175.471	9944.63
178.699	9937.1
181.925	9928.15
185.149	9916.78
188.374	9903.1
191.596	9899.57
194.818	9898.23
198.037	9904.24
201.254	9919.52
204.472	9938.93
207.687	9961.38
210.903	9990.3
214.115	10018.8
217.326	10045.8
220.537	10070.9
223.746	10100.4
226.953	10117
230.16	10126
233.365	10119.1
236.568	10084.9
239.771	10052.4
242.972	10022
246.171	9993.32
249.371	9967.35
252.567	9933.23
255.762	9903.3
258.958	9897.83
262.151	9895.23
265.342	9896.38
268.533	9899.16
271.722	9906.44
274.91	9909.69
278.096	9915.76
281.282	9916.62
284.466	9917.96
287.648	9910.93
290.829	9900.29
294.01	9884.87
297.188	9865.99
300.365	9844.15
303.541	9819.98
306.716	9794.41
309.89	9771.06
313.061	9751.06
316.232	9733.46
319.401	9718.09
322.57	9705.07
325.737	9693.26
328.902	9683.18
332.066	9674.31
335.229	9670.16
338.392	9667.77
341.552	9657.59
344.711	9643.79
347.868	9625.48
351.024	9604.29
354.179	9584.62
357.335	9561.9
360.487	9534.56
363.638	9508.5
366.788	9485.1
369.936	9465.08
373.084	9449.64
376.23	9437.42
379.376	9429.27
382.519	9426.34
385.661	9429.4
388.802	9439.77
391.942	9461.93
395.08	9501.74
398.217	9558.12
401.353	9632.4
404.487	9720.53
407.62	9831.88
410.752	9979.84
413.884	10067.2
417.013	10126.9
420.141	10126
423.268	10081.2
426.394	9995.55
429.518	9944.24
432.641	9910.79
435.763	9878.04
438.883	9856.41
442.002	9836.61
445.12	9821.39
448.237	9806.08
451.352	9789
454.466	9771.38
457.579	9752.73
460.691	9733.7
463.801	9713.64
466.91	9693.19
470.018	9672.13
473.125	9650.27
476.23	9621.64
479.334	9601.57
482.437	9589.68
485.538	9583.25
488.638	9589.9
491.737	9581.05
494.834	9565.06
497.93	9524.29
501.026	9486.27
504.12	9441.35
507.212	9395.67
510.304	9354.23
513.394	9319.57
516.483	9291.02
519.571	9268.03
522.657	9251.12
525.743	9243.24
528.825	9234.77
531.908	9231.88
534.989	9233.5
538.07	9239.49
541.149	9248.33
544.227	9256.63
547.303	9280.63
550.377	9310.3
553.451	9342.57
556.524	9376.77
559.595	9430.43
562.666	9465.48
565.735	9487.05
568.801	9502.95
571.868	9492.74
574.933	9480.8
577.998	9474.72
581.061	9468.72
584.121	9462.6
587.181	9453.56
590.241	9443.98
593.299	9434.97
596.354	9427.31
599.41	9420.83
602.464	9416.37
605.517	9412.83
608.568	9409.67
611.618	9405
614.668	9392.5
617.716	9391.59
620.761	9393.4
623.807	9396.13
626.852	9395.74
629.895	9402.4
632.936	9418.56
635.977	9420.2
639.016	9433.57
642.053	9414.09
645.091	9384.74
648.127	9346.21
651.16	9282.13
654.193	9228.67
657.226	9170.11
660.256	9130.17
663.286	9095.39
666.314	9077.67
669.34	9065.9
672.367	9059.87
675.392	9069.12
678.414	9074.89
681.437	9080.79
684.457	9087.46
687.477	9093.69
690.496	9099.8
693.513	9104.8
696.529	9108.35
699.543	9110.56
702.558	9109.91
705.571	9105.6
708.581	9098.79
711.592	9091.86
714.6	9084.19
717.608	9076.28
720.614	9069.97
723.62	9064.88
726.624	9061.23
729.626	9060.39
732.628	9061.75
735.628	9064.87
738.628	9069.93
741.625	9075.98
744.623	9083.11
747.618	9087.06
750.613	9098.38
753.605	9113.23
756.598	9130.93
759.588	9148.46
762.578	9165.03
765.566	9179.64
768.554	9193.02
771.539	9206.89
774.525	9225.52
777.508	9247.35
780.49	9255.34
783.472	9260.3
786.451	9259.9
789.431	9262.12
792.408	9266.07
795.385	9271.8
798.36	9281.41
801.333	9295.61
804.307	9318.5
807.278	9341.21
810.25	9362.19
813.219	9386.47
816.186	9414.74
819.154	9445.56
822.119	9480.01
825.085	9516.24
828.048	9553.6
831.01	9591.3
833.972	9627.73
836.931	9663.21
839.889	9693.55
842.848	9719.48
845.804	9740.34
848.759	9756.41
851.714	9768.04
854.666	9775.96
857.617	9779.61
860.569	9778.89
863.518	9770.86
866.465	9762.75
869.413	9753.59
872.359	9741.63
875.303	9732.39
878.246	9704.29
881.19	9696.2
884.13	9687.66
887.07	9718.7
890.009	9699.78
892.947	9714.79
895.883	9766.68
898.818	9837.93
901.752	9914.54
904.686	10036.9
907.618	10283.2
910.548	10515.3
913.478	10865.4
916.406	11214.7
919.334	11449.9
922.26	11541.8
925.184	11206.1
928.108	10841.8
931.03	10481.3
933.953	10285.7
936.873	10221.1
939.792	10245
942.709	10300.4
945.626	10490.5
948.542	10843.3
951.457	11405.6
954.37	12436.5
957.282	13803.5
960.193	14919
963.103	14493
966.012	13262
968.919	12118.9
971.825	11455.6
974.731	11181
977.636	11125.6
980.539	11191.2
983.441	11303.9
986.341	11456.4
989.241	11584.9
992.139	11672.9
995.036	11770.5
997.932	11643
1000.83	11413.4
1003.72	11247.9
1006.61	11116.6
1009.51	11058.6
1012.4	11005.5
1015.29	10973.5
1018.17	10951.8
1021.06	10942.1
1023.95	10935.9
1026.83	10925.1
1029.71	10917
1032.6	10914.4
1035.48	10918.6
1038.36	10924.4
1041.24	10932.2
1044.12	10940.3
1046.99	10948.2
1049.87	10954.4
1052.74	10960.6
1055.62	10947.4
1058.49	10948.5
1061.36	10942.5
1064.23	10940.3
1067.1	10939.8
1069.97	10943.1
1072.84	10944.6
1075.7	10940.9
1078.56	10934.3
1081.43	10924
1084.29	10917.2
1087.15	10904.3
1090.01	10897.9
1092.87	10895.4
1095.73	10897.9
1098.58	10906
1101.44	10918.8
1104.29	10937.3
1107.15	10959.7
1110	10987.2
1112.85	11009.2
1115.7	11030.3
1118.55	11049.5
1121.4	11062
1124.24	11072
1127.09	11080.4
1129.94	11089.8
1132.78	11093.2
1135.62	11104.1
1138.46	11113.5
1141.3	11126.3
1144.14	11139.9
1146.98	11158.4
1149.81	11174.7
1152.65	11189.2
1155.49	11202.6
1158.32	11214.9
1161.15	11226.2
1163.98	11237.2
1166.81	11246.6
1169.64	11255
1172.47	11262.4
1175.3	11275.7
1178.12	11292.8
1180.95	11314.8
1183.77	11334.1
1186.59	11354.4
1189.41	11375.9
1192.23	11399.4
1195.05	11423.9
1197.87	11449.6
1200.69	11476.3
1203.5	11503.7
1206.32	11530.4
1209.13	11557.4
1211.94	11583.1
1214.75	11610.2
1217.56	11638.3
1220.37	11665.6
1223.18	11691.8
1225.99	11717.2
1228.79	11740.5
1231.6	11762
1234.4	11780.2
1237.21	11796.7
1240.01	11803.4
1242.81	11808.2
1245.61	11817.2
1248.41	11819.1
1251.2	11818.1
1254	11814.7
1256.79	11810.8
1259.59	11809.2
1262.38	11809
1265.17	11812.4
1267.96	11819.9
1270.75	11838
1273.54	11857.5
1276.33	11881.2
1279.12	11904.5
1281.9	11931
1284.69	11959.7
1287.47	11990.9
1290.25	12021.9
1293.03	12054.5
1295.81	12087.8
1298.59	12121.2
1301.37	12154.7
1304.15	12188.4
1306.92	12221.9
1309.7	12253.2
1312.47	12281.7
1315.24	12309
1318.01	12335.3
1320.78	12361.5
1323.55	12386.1
1326.32	12411.3
1329.09	12435.6
1331.85	12457.5
1334.62	12477.1
1337.38	12495.5
1340.15	12509
1342.91	12520.2
1345.67	12532.3
1348.43	12545.6
1351.19	12559.8
1353.95	12574.9
1356.7	12592
1359.46	12609.5
1362.21	12628.7
1364.97	12648.7
1367.72	12671
1370.47	12696.9
1373.22	12724
1375.97	12750.5
1378.72	12776.2
1381.46	12801.1
1384.21	12824
1386.96	12846.1
1389.7	12867.4
1392.44	12888.3
1395.18	12909.3
1397.92	12930.4
1400.66	12952.8
1403.4	12975.5
1406.14	12998.6
1408.88	13022.5
1411.61	13047.2
1414.35	13072.4
1417.08	13097.7
1419.81	13121.9
1422.54	13145.3
1425.27	13169.7
1428	13194.8
1430.73	13219.1
1433.46	13243.7
1436.18	13268.2
1438.91	13292.8
1441.63	13319.4
1444.36	13347
1447.08	13374.8
1449.8	13402.8
1452.52	13430.5
1455.24	13457.7
1457.96	13482.6
1460.67	13506.9
1463.39	13529.8
1466.1	13552.7
1468.82	13574.1
1471.53	13595.9
1474.24	13619.5
1476.95	13645.1
1479.66	13671.8
1482.37	13699.3
1485.08	13727.2
1487.78	13756.7
1490.49	13786.9
1493.19	13820.3
1495.9	13856.6
1498.6	13893
1501.3	13927.2
1504	13961.1
1506.7	13992.9
1509.4	14023.2
1512.09	14053.8
1514.79	14084.1
1517.49	14117.6
1520.18	14151.8
1522.87	14186.2
1525.56	14221.7
1528.26	14255.6
1530.95	14288.8
1533.63	14321
1536.32	14349
1539.01	14371.8
1541.7	14391.5
1544.38	14409.8
1547.06	14425.9
1549.75	14442.5
1552.43	14460.9
1555.11	14481.9
1557.79	14504.2
1560.47	14528.8
1563.15	14554.5
1565.82	14582.2
1568.5	14611.6
1571.17	14643.1
1573.85	14676.7
1576.52	14712.8
1579.19	14751.3
1581.86	14792.8
1584.53	14836.2
1587.2	14882.9
1589.87	14930.4
1592.54	14968.7
1595.2	15017.7
1597.86	15065.3
1600.53	15114.5
1603.19	15164
1605.85	15213.6
1608.51	15264.8
1611.17	15314.8
1613.83	15358.3
1616.49	15398.1
1619.15	15426.3
1621.8	15445
1624.46	15470.1
1627.11	15493.1
1629.76	15515.5
1632.41	15538.9
1635.06	15561.8
1637.71	15584.4
1640.36	15606.9
1643.01	15629.4
1645.66	15652.1
1648.3	15674.9
1650.95	15699.3
1653.59	15724.1
1656.23	15749.3
1658.87	15775.2
1661.52	15800.6
1664.16	15825.9
1666.79	15850.3
1669.43	15874.4
1672.07	15899.6
1674.7	15924.6
1677.34	15949.2
1679.97	15974.2
1682.6	15999.8
1685.24	16026.8
1687.87	16056.5
1690.5	16089.9
1693.13	16125.9
1695.75	16165
1698.38	16206.2
1701.01	16249.3
1703.63	16294.3
1706.25	16339.7
1708.88	16383.6
1711.5	16424.5
1714.12	16463.8
1716.74	16503.1
1719.36	16543.2
1721.98	16583.7
1724.59	16629.4
1727.21	16666.8
1729.82	16693.1
1732.44	16719.9
1735.05	16746.6
1737.66	16773.6
1740.27	16801.6
1742.89	16829.7
1745.49	16856.2
1748.1	16882
1750.71	16905.4
1753.31	16927.7
1755.92	16946.6
1758.52	16965
1761.13	16983.5
1763.73	17003
1766.33	17026.2
1768.93	17052.8
1771.53	17082.4
1774.13	17115
1776.73	17152.3
1779.32	17191.8
1781.92	17232.7
1784.51	17276.4
1787.11	17321
1789.7	17367.5
1792.29	17415.5
1794.88	17464.4
1797.47	17513.1
1800.06	17560.8
1802.65	17606.7
1805.23	17649.3
1807.82	17688.8
1810.41	17724.8
1812.99	17756.1
1815.57	17785
1818.15	17812.6
1820.74	17838.8
1823.32	17864.4
1825.9	17891.6
1828.47	17918.2
1831.05	17942.3
1833.63	17965.8
1836.2	17989.5
1838.78	18015.2
1841.35	18039.7
1843.92	18062.7
1846.49	18085.7
1849.06	18109.2
1851.63	18133.4
1854.2	18158.6
1856.77	18185.3
1859.34	18215.1
1861.9	18244.9
1864.47	18276.4
1867.03	18308.8
1869.59	18343.2
1872.16	18378.9
1874.72	18415.6
1877.28	18453.1
1879.84	18489.8
1882.39	18524.7
1884.95	18559.1
1887.51	18594
1890.06	18629.6
1892.62	18665.2
1895.17	18701
1897.72	18735.3
1900.27	18769.4
1902.82	18803.8
1905.37	18838.3
1907.92	18873.7
1910.47	18909.3
1913.02	18945.7
1915.56	18982.6
1918.11	19019.1
1920.65	19054
1923.2	19084.6
1925.74	19112.5
1928.28	19138.5
1930.82	19164.2
1933.36	19187.7
1935.9	19209.8
1938.43	19232.7
1940.97	19254.8
1943.51	19275
1946.04	19292.7
1948.57	19305.8
1951.11	19318.5
1953.64	19331.2
1956.17	19344.5
1958.7	19362.1
1961.23	19381.7
1963.76	19404.3
1966.28	19429.1
1968.81	19456.2
1971.33	19484.7
1973.86	19513.4
1976.38	19545.1
1978.91	19578.4
1981.43	19613.1
1983.95	19649
1986.47	19686
1988.99	19724.9
1991.5	19744.7
1994.02	19840.2
1996.54	19818.2
1999.05	19842.7
2001.57	19869.4
2004.08	19900.1
2006.59	19932.1
2009.1	19967
2011.61	20001.7
2014.12	20036.4
2016.63	20070.3
2019.14	20107.4
2021.65	20144.2
2024.15	20182
2026.66	20219.2
2029.16	20252.3
2031.66	20281.5
2034.17	20305.9
2036.67	20313.9
2039.17	20333.9
2041.67	20358.6
2044.17	20396.8
2046.66	20423.2
2049.16	20449
2051.66	20474.3
2054.15	20499.7
2056.65	20525.7
2059.14	20552.5
2061.63	20580.2
2064.12	20608.1
2066.61	20636.9
2069.1	20666.1
2071.59	20694.4
2074.08	20721.4
2076.56	20746.3
2079.05	20770.1
2081.53	20791.8
2084.02	20812.1
2086.5	20831.8
2088.98	20836.8
2091.46	20847.7
2093.94	20861.4
2096.42	20877.2
2098.9	20894.2
2101.38	20944.1
2103.86	20971.4
2106.33	20998.2
2108.81	21021.4
2111.28	21043.6
2113.76	21066.1
2116.23	21084.4
2118.7	21097.3
2121.17	21109.3
2123.64	21121
2126.11	21133.6
2128.57	21145.6
2131.04	21157.8
2133.51	21169.4
2135.97	21180.3
2138.44	21191.4
2140.9	21202.7
2143.36	21214.4
2145.82	21227.3
2148.28	21241.8
2150.74	21258.1
2153.2	21274.3
2155.66	21290.7
2158.12	21307.3
2160.57	21323.9
2163.03	21339.7
2165.48	21354.7
2167.94	21371.1
2170.39	21388.4
2172.84	21406.5
2175.29	21426.3
2177.74	21448.8
2180.19	21484.2
2182.64	21503.3
2185.09	21519.5
2187.53	21533.7
2189.98	21547.9
2192.42	21561.5
2194.86	21575.4
2197.31	21590.6
2199.75	21605.8
2202.19	21621.9
2204.63	21637.9
2207.07	21657.6
2209.51	21680
2211.95	21703.7
2214.38	21727.6
2216.82	21749.6
2219.25	21766.5
2221.69	21780.2
2224.12	21790.8
2226.55	21797.7
2228.98	21803.3
2231.41	21809.6
2233.84	21815.2
2236.27	21818.1
2238.7	21821.1
2241.13	21824.9
2243.55	21832
2245.98	21840.1
2248.4	21848.8
2250.83	21856.7
2253.25	21863.5
2255.67	21869.2
2258.09	21874.9
2260.51	21881
2262.93	21886.6
2265.35	21890.2
2267.76	21892.6
2270.18	21894.8
2272.6	21896
2275.01	21896.7
2277.43	21898.2
2279.84	21899.9
2282.25	21901.7
2284.66	21897.3
2287.07	21904.2
2289.48	21912.1
2291.89	21938.6
2294.3	21949.3
2296.7	21955.2
2299.11	21964
2301.52	21974.4
2303.92	21984.7
2306.32	22010.2
2308.73	22030.7
2311.13	22053.1
2313.53	22087.8
2315.93	22116
2318.33	22128.3
2320.73	22132.6
2323.12	22122.2
2325.52	22119.7
2327.92	22129.9
2330.31	22142
2332.7	22155.6
2335.1	22168.4
2337.49	22181.6
2339.88	22195.5
2342.27	22209.7
2344.66	22226.1
2347.05	22243.1
2349.44	22253.1
2351.83	22259.1
2354.21	22259.1
2356.6	22255
2358.98	22244.2
2361.36	22228.7
2363.75	22219.8
2366.13	22211.5
2368.51	22205
2370.89	22199.1
2373.27	22192.7
2375.65	22186.4
2378.03	22179.6
2380.4	22172.4
2382.78	22164.5
2385.15	22155.9
2387.53	22147.3
2389.9	22138.1
2392.28	22128.4
2394.65	22119.2
2397.02	22109.7
2399.39	22103.6
2401.76	22099.8
2404.12	22099.3
2406.49	22101.8
2408.86	22104.9
2411.23	22110.4
2413.59	22118
2415.95	22128.2
2418.32	22139.6
2420.68	22151.5
2423.04	22163.3
2425.4	22174.1
2427.76	22184.4
2430.12	22193.1
2432.48	22201.5
2434.84	22209.7
2437.19	22218
2439.55	22228.2
2441.9	22237.9
2444.26	22246.3
2446.61	22251.9
2448.96	22251.1
2451.32	22247.5
2453.67	22242.4
2456.02	22235.7
2458.37	22229.2
2460.71	22221.5
2463.06	22213
2465.41	22203.3
2467.75	22192.2
2470.1	22179.3
2472.44	22164.2
2474.79	22145.8
2477.13	22126.8
2479.47	22108.7
2481.81	22092.8
2484.15	22079.3
2486.49	22068.1
2488.83	22058.6
2491.17	22051.5
2493.5	22046.2
2495.84	22040.9
2498.17	22037.4
2500.51	22033.7
2502.84	22032.4
2505.17	22030.8
2507.5	22030.2
2509.84	22028.7
2512.17	22025.4
2514.5	22021.9
2516.82	22015.9
2519.15	22007.2
2521.48	21996.5
2523.8	21983.7
2526.13	21969.4
2528.45	21955.3
2530.78	21940.8
2533.1	21928.4
2535.42	21915.7
2537.74	21903.1
2540.06	21889.1
2542.38	21873.3
2544.7	21859.6
2547.02	21848.8
2549.33	21839.8
2551.65	21831.8
2553.97	21824.9
2556.28	21818.7
2558.59	21811.6
2560.91	21804.9
2563.22	21798.2
2565.53	21790.8
2567.84	21780.8
2570.15	21765.8
2572.46	21748.8
2574.77	21731.2
2577.07	21716.4
2579.38	21701.2
2581.68	21684.6
2583.99	21667.3
2586.29	21647.6
2588.6	21626.9
2590.9	21607.2
2593.2	21589.2
2595.5	21574.6
2597.8	21560.3
2600.1	21545.3
2602.4	21521.2
2604.69	21501.3
2606.99	21485
2609.29	21469.4
2611.58	21456.8
2613.88	21447.1
2616.17	21438.7
2618.46	21417.8
2620.75	21409.3
2623.04	21404.1
2625.33	21400.6
2627.62	21396.9
2629.91	21393.9
2632.2	21390.6
2634.49	21385
2636.77	21374.6
2639.06	21357.3
2641.34	21334.3
2643.63	21300.9
2645.91	21273.4
2648.19	21246.7
2650.47	21219.6
2652.75	21189
2655.03	21160.4
2657.31	21133.5
2659.59	21110.1
2661.87	21086.6
2664.14	21063.6
2666.42	21037.8
2668.69	21034.5
2670.97	21036.7
2673.24	21043.3
2675.51	21050.8
2677.79	21050.5
2680.06	21047.6
2682.33	21042.7
2684.6	21037.4
2686.87	21030.1
2689.13	21018.5
2691.4	20998.9
2693.67	20974.4
2695.93	20944.6
2698.2	20913.3
2700.46	20880.7
2702.72	20848.2
2704.99	20816.8
2707.25	20790.3
2709.51	20765.1
2711.77	20742.4
2714.03	20720.4
2716.28	20699.4
2718.54	20678.5
2720.8	20657.4
2723.05	20632.7
2725.31	20611.4
2727.56	20575.5
2729.82	20528.8
2732.07	20472.5
2734.32	20461.7
2736.57	20450.3
2738.83	20441.3
2741.07	20432
2743.32	20423.2
2745.57	20415.1
2747.82	20409.8
2750.07	20405.3
2752.31	20401.5
2754.56	20400.2
2756.8	20397.9
2759.04	20393.4
2761.29	20387.7
2763.53	20376.9
2765.77	20362.7
2768.01	20346.4
2770.25	20328.5
2772.49	20310.3
2774.73	20292.8
2776.96	20273.2
2779.2	20253
2781.44	20233.4
2783.67	20214.1
2785.9	20197.4
2788.14	20181.4
2790.37	20167.1
2792.6	20156.2
2794.83	20147.6
2797.06	20138.3
2799.29	20127
2801.52	20116.4
2803.75	20104.2
2805.98	20088
2808.2	20067.3
2810.43	20047.4
2812.65	20027
2814.88	20008.7
2817.1	19991.3
2819.32	19974
2821.54	19956
2823.77	19936.3
2825.99	19919.1
2828.2	19904.6
2830.42	19892.1
2832.64	19881.2
2834.86	19872.7
2837.08	19867.6
2839.29	19863
2841.51	19858.7
2843.72	19851.9
2845.93	19846
2848.15	19838.2
2850.36	19832.8
2852.57	19828.4
2854.78	19824.3
2856.99	19820.3
2859.2	19816.6
2861.41	19811.6
2863.61	19803.9
2865.82	19796.5
2868.02	19788.3
2870.23	19780
2872.43	19773.1
2874.64	19767.8
2876.84	19761.8
2879.04	19758.5
2881.24	19756.7
2883.44	19755.1
2885.64	19751.7
2887.84	19744.4
2890.04	19735.2
2892.24	19723.2
2894.43	19708.6
2896.63	19690.2
2898.82	19670.9
2901.02	19650.2
2903.21	19628.4
2905.41	19603.6
2907.6	19580.6
2909.79	19555.3
2911.98	19531.6
2914.17	19508.5
2916.36	19488.5
2918.55	19471.5
2920.74	19458.3
2922.92	19447.3
2925.11	19438.7
2927.29	19431.9
2929.48	19425.9
2931.66	19419.1
2933.84	19411.7
2936.03	19401.9
2938.21	19388
2940.39	19371.5
2942.57	19352.6
2944.75	19331.5
2946.93	19308.1
2949.11	19284.7
2951.28	19260.3
2953.46	19210.1
2955.64	19197
2957.81	19187.9
2959.98	19179.8
2962.16	19172.6
2964.33	19164.4
2966.5	19154.8
2968.67	19144.9
2970.84	19132.4
2973.01	19102.7
2975.18	19068.8
2977.35	19037
2979.52	19006.5
2981.68	18981.2
2983.85	18959.3
2986.02	18939.7
2988.18	18917.9
2990.34	18891.4
2992.51	18850.6
2994.67	18817
2996.83	18797.2
2998.99	18785.7
3001.15	18782.9
3003.31	18783.9
3005.47	18782.1
3007.63	18775.4
3009.78	18763.7
3011.94	18748.9
3014.1	18730.6
3016.25	18710.4
3018.41	18689.8
3020.56	18669.5
3022.71	18646.8
3024.86	18621.8
3027.02	18594.9
3029.17	18567.2
3031.32	18539.5
3033.47	18512.4
3035.61	18485.3
3037.76	18459.8
3039.91	18435.3
3042.05	18412.6
3044.2	18392
3046.34	18375.9
3048.49	18361.2
3050.63	18340.2
3052.77	18333.8
3054.92	18326.7
3057.06	18326.6
3059.2	18332.2
3061.34	18343.3
3063.48	18354.8
3065.61	18366.1
3067.75	18377.8
3069.89	18385.1
3072.02	18385.6
3074.16	18372.7
3076.29	18358.6
3078.43	18340.4
3080.56	18319.3
3082.69	18295.1
3084.82	18269.5
3086.96	18242.9
3089.09	18216.5
3091.22	18191.7
3093.34	18169.1
3095.47	18148.8
3097.6	18128.3
3099.73	18111.1
3101.85	18096.8
3103.98	18084.8
3106.1	18074.2
3108.23	18063.9
3110.35	18052.8
3112.47	18039.9
3114.59	18023.7
3116.71	18005.9
3118.83	17987.3
3120.95	17971.2
3123.07	17953.4
3125.19	17935.1
3127.31	17920.4
3129.42	17909.3
3131.54	17899.3
3133.65	17889.2
3135.77	17877.6
3137.88	17863.8
3140	17844.8
3142.11	17824.4
3144.22	17802.3
3146.33	17779.3
3148.44	17757.1
3150.55	17734.8
3152.66	17714.3
3154.77	17696.5
3156.87	17680.8
3158.98	17666.6
3161.09	17654.1
3163.19	17643.2
3165.29	17631.8
3167.4	17621.4
3169.5	17609.8
3171.6	17597.5
3173.71	17581.6
3175.81	17561.5
3177.91	17539.9
3180.01	17516.6
3182.11	17492
3184.2	17466.4
3186.3	17440.6
3188.4	17415.3
3190.49	17390.5
3192.59	17369.7
3194.68	17353.4
3196.78	17340
3198.87	17329.8
3200.96	17323.1
3203.05	17319.6
3205.15	17319.6
3207.24	17322.6
3209.33	17328.7
3211.41	17336.3
3213.5	17346.7
3215.59	17356.8
3217.68	17359.1
3219.76	17355.5
3221.85	17347.8
3223.93	17333.4
3226.02	17324.1
3228.1	17314.6
3230.18	17303.1
3232.27	17290.5
3234.35	17277.3
3236.43	17265.3
3238.51	17253.3
3240.59	17240.5
3242.66	17226.5
3244.74	17212.4
3246.82	17197.7
3248.9	17181.9
3250.97	17166
3253.05	17148.5
3255.12	17127.5
3257.2	17096.1
3259.27	17069.8
3261.34	17048.8
3263.41	17033.1
3265.48	17020.8
3267.55	17009.6
3269.62	16995.8
3271.69	16982.4
3273.76	16968.9
3275.83	16954
3277.89	16937.2
3279.96	16917.8
3282.02	16897.2
3284.09	16875.1
3286.15	16850.8
3288.22	16825.7
3290.28	16800.1
3292.34	16777.2
3294.4	16756.9
3296.46	16741.1
3298.52	16729.1
3300.58	16719.7
3302.64	16711.9
3304.7	16704.9
3306.75	16699.6
3308.81	16692.8
3310.87	16690
3312.92	16686.4
3314.98	16681.3
3317.03	16673.8
3319.08	16659.8
3321.14	16644.3
3323.19	16620.6
3325.24	16600.2
3327.29	16584.1
3329.34	16570.5
3331.39	16555.5
3333.44	16538.7
3335.48	16519.5
3337.53	16500.2
3339.58	16476.5
3341.62	16451.4
3343.67	16425.4
3345.71	16401.3
3347.75	16376.9
3349.8	16356.2
3351.84	16337.4
3353.88	16321.6
3355.92	16307.4
3357.96	16293.4
3360	16280.7
3362.04	16268.7
3364.08	16257.1
3366.11	16246.5
3368.15	16234.9
3370.19	16222.2
3372.22	16209.8
3374.26	16201.3
3376.29	16196.3
3378.32	16191.4
3380.36	16181.1
3382.39	16167.8
3384.42	16155
3386.45	16142.2
3388.48	16129.7
3390.51	16119.7
3392.54	16112.8
3394.57	16093.6
3396.59	16078.3
3398.62	16066.2
3400.65	16057.7
3402.67	16051.7
3404.7	16048.3
3406.72	16041.4
3408.74	16032.9
3410.77	16025.1
3412.79	16017.3
3414.81	16007.1
3416.83	15993.1
3418.85	15979.5
3420.87	15965.3
3422.89	15952.1
3424.91	15941.8
3426.92	15932.5
3428.94	15923.8
3430.96	15915.9
3432.97	15906.1
3434.98	15893.7
3437	15881.7
3439.01	15871.1
3441.02	15862.3
3443.04	15854.2
3445.05	15848
3447.06	15842.2
3449.07	15836.2
3451.08	15829.3
3453.09	15821.1
3455.09	15811.3
3457.1	15799.5
3459.11	15786.9
3461.11	15772.7
3463.12	15757.2
3465.13	15741.8
3467.13	15728.8
3469.13	15719.4
3471.13	15712.5
3473.14	15699.1
3475.14	15684.4
3477.14	15670.9
3479.14	15659.6
3481.14	15649.7
3483.14	15641.4
3485.14	15634.3
3487.13	15627.1
3489.13	15618.4
3491.13	15610.2
3493.12	15600.9
3495.12	15593.2
3497.11	15584.5
3499.1	15576.7
3501.1	15566.6
3503.09	15553.9
3505.08	15536.4
3507.07	15511.9
3509.06	15485.7
3511.05	15458.8
3513.04	15431.4
3515.03	15402.4
3517.02	15373.8
3519	15345.1
3520.99	15321.1
3522.98	15298.3
3524.96	15280.9
3526.95	15278
3528.93	15264.2
3530.91	15251.2
3532.89	15240.1
3534.88	15232.1
3536.86	15225.7
3538.84	15219.4
3540.82	15213
3542.8	15203.2
3544.78	15190.8
3546.75	15175.7
3548.73	15157.4
3550.71	15136.4
3552.68	15117.4
3554.66	15102.7
3556.63	15091.3
3558.61	15081.4
3560.58	15071.3
3562.55	15060.3
3564.53	15048.2
3566.5	15034.8
3568.47	15020.3
3570.44	15005.5
3572.41	14977.7
3574.38	14941.4
3576.34	14926.5
3578.31	14915.2
3580.28	14905.9
3582.25	14899.8
3584.21	14895.4
3586.18	14885.6
3588.14	14877
3590.1	14869.9
3592.07	14868.6
3594.03	14858.7
3595.99	14845.8
3597.95	14833.9
3599.91	14823.7
3601.87	14809.2
3603.83	14788.7
3605.79	14765.7
3607.75	14741.2
3609.71	14717.6
3611.66	14693.7
3613.62	14668.8
3615.58	14643.8
3617.53	14618.2
3619.49	14594
3621.44	14574.2
3623.39	14556.6
3625.34	14540.7
3627.3	14529.1
3629.25	14520.5
3631.2	14513.7
3633.15	14507.2
3635.1	14499.8
3637.05	14492.4
3638.99	14485.1
3640.94	14477.3
3642.89	14471.2
3644.83	14462.6
3646.78	14452.4
3648.72	14438.3
3650.67	14423
3652.61	14406.9
3654.55	14390.4
3656.5	14373.7
3658.44	14357.9
3660.38	14342.6
3662.32	14325.3
3664.26	14307.1
3666.2	14288.7
3668.14	14270.9
3670.07	14253.5
3672.01	14237.1
3673.95	14222.1
3675.88	14207.4
3677.82	14191.1
3679.75	14175.7
3681.69	14160.2
3683.62	14146.3
3685.55	14135.5
3687.49	14124.7
3689.42	14117
3691.35	14110
3693.28	14103.5
3695.21	14097.8
3697.14	14092
3699.07	14095.1
3700.99	14084.7
3702.92	14072.9
3704.85	14056.8
3706.77	14040.5
3708.7	14026.3
3710.62	14013.4
3712.55	14002.5
3714.47	13992.7
3716.39	13983.6
3718.32	13974.8
3720.24	13966.1
3722.16	13955.1
3724.08	13941.9
3726	13925.3
3727.92	13905.7
3729.84	13888.7
3731.76	13871.9
3733.67	13853.8
3735.59	13834.9
3737.51	13812.9
3739.42	13787.4
3741.34	13775
3743.25	13766.1
3745.16	13760.3
3747.08	13772.5
3748.99	13766
3750.9	13758.6
3752.81	13745.4
3754.72	13725.4
3756.63	13663.1
3758.54	13645.1
3760.45	13631.2
3762.36	13625.3
3764.27	13632.5
3766.17	13638.5
3768.08	13640.7
3769.99	13640.5
3771.89	13635.1
3773.79	13623.8
3775.7	13600.3
3777.6	13577
3779.5	13552.9
3781.41	13528.6
3783.31	13505
3785.21	13482.6
3787.11	13460.1
3789.01	13439.8
3790.91	13421.7
3792.81	13407.2
3794.7	13394.9
3796.6	13386.6
3798.5	13380.3
3800.39	13374.6
3802.29	13370
3804.18	13366.5
3806.08	13355.6
3807.97	13342.1
3809.86	13328
3811.76	13312.8
3813.65	13298.5
3815.54	13283.5
3817.43	13269.3
3819.32	13254.1
3821.21	13256.6
3823.1	13245.7
3824.99	13236.2
3826.87	13220.2
3828.76	13199.1
3830.65	13180
3832.53	13160.8
3834.42	13141.7
3836.3	13132.9
3838.18	13120.7
3840.07	13105.2
3841.95	13088.3
3843.83	13070.7
3845.71	13051.1
3847.6	13030.5
3849.48	13008.4
3851.36	12985.7
3853.23	12961.3
3855.11	12935.6
3856.99	12909
3858.87	12884.6
3860.74	12868.2
3862.62	12854.7
3864.5	12846.8
3866.37	12840.8
3868.24	12835.2
3870.12	12828.7
3871.99	12821.6
3873.86	12811.7
3875.74	12800.2
3877.61	12787.7
3879.48	12775.2
3881.35	12762.3
3883.22	12748.9
3885.09	12735.8
3886.95	12721.4
3888.82	12705.2
3890.69	12688.3
3892.56	12670.7
3894.42	12653
3896.29	12635.8
3898.15	12621.5
3900.02	12607.5
3901.88	12594.8
3903.74	12582
3905.61	12571.8
3907.47	12559
3909.33	12546.9
3911.19	12535.7
3913.05	12525
3914.91	12514.6
3916.77	12503.4
3918.63	12489.6
3920.48	12473.6
3922.34	12451.2
3924.2	12425.7
3926.05	12396.5
3927.91	12366.1
3929.76	12334
3931.62	12303.6
3933.47	12275.4
3935.32	12249.2
3937.18	12225.1
3939.03	12203.3
3940.88	12183.6
3942.73	12165.8
3944.58	12151.1
3946.43	12138.2
3948.28	12126.4
3950.13	12115.3
3951.97	12103.7
3953.82	12091.4
3955.67	12075
3957.51	12056.4
3959.36	12022.1
3961.2	12003
3963.05	11986.4
3964.89	11969
3966.74	11951.3
3968.58	11933.5
3970.42	11915.8
3972.26	11899.4
3974.1	11881.8
3975.94	11863.9
3977.78	11846
3979.62	11829.2
3981.46	11813.4
3983.3	11798.3
3985.13	11777.2
3986.97	11754.9
3988.81	11732.5
3990.64	11712.9
3992.48	11692.5
3994.31	11672.4
3996.15	11650.3
3997.98	11629.3
3999.81	11607.8
